# distance (nm)	f (kT)	df (kT)
  0.0020	  4.8120	  0.0329
  0.0060	  2.9016	  0.0134
  0.0100	  1.9864	  0.0093
  0.0140	  1.3972	  0.0077
  0.0180	  1.0222	  0.0070
  0.0220	  0.7733	  0.0066
  0.0260	  0.6262	  0.0064
  0.0300	  0.5636	  0.0063
  0.0340	  0.5683	  0.0062
  0.0380	  0.6534	  0.0062
  0.0420	  0.7993	  0.0062
  0.0460	  1.0104	  0.0063
  0.0500	  1.2895	  0.0064
  0.0540	  1.6238	  0.0065
  0.0580	  2.0218	  0.0067
  0.0620	  2.4714	  0.0071
  0.0660	  2.9654	  0.0077
  0.0700	  3.4893	  0.0087
  0.0740	  3.9764	  0.0100
  0.0780	  4.4522	  0.0118
  0.0820	  4.8926	  0.0136
  0.0860	  5.2981	  0.0157
  0.0900	  5.6556	  0.0175
  0.0940	  5.9689	  0.0193
  0.0980	  6.3199	  0.0212
  0.1020	  6.6868	  0.0237
  0.1060	  6.9507	  0.0257
  0.1100	  7.3078	  0.0281
  0.1140	  7.5707	  0.0302
  0.1180	  7.8160	  0.0316
  0.1220	  8.1021	  0.0341
  0.1260	  8.4421	  0.0378
  0.1300	  8.6262	  0.0396
  0.1340	  8.9348	  0.0427
  0.1380	  9.1518	  0.0448
  0.1420	  9.3003	  0.0471
  0.1460	  9.4674	  0.0499
  0.1500	  9.6978	  0.0499
  0.1540	  9.7833	  0.0523
  0.1580	 10.0237	  0.0534
  0.1620	 10.1533	  0.0575
  0.1660	 10.2019	  0.0590
  0.1700	 10.3629	  0.0593
  0.1740	 10.3629	  0.0583
  0.1780	 10.4187	  0.0608
  0.1820	 10.5319	  0.0602
  0.1860	 10.3042	  0.0580
  0.1900	 10.4134	  0.0591
  0.1940	 10.4194	  0.0566
  0.1980	 10.3651	  0.0569
  0.2020	 10.3460	  0.0565
  0.2060	 10.2699	  0.0559
  0.2100	 10.2014	  0.0548
  0.2140	  9.9835	  0.0503
  0.2180	  9.9059	  0.0504
  0.2220	  9.7886	  0.0492
  0.2260	  9.7211	  0.0471
  0.2300	  9.6840	  0.0459
  0.2340	  9.5110	  0.0441
  0.2380	  9.3176	  0.0408
  0.2420	  9.1881	  0.0390
  0.2460	  9.0150	  0.0370
  0.2500	  8.8194	  0.0353
  0.2540	  8.7333	  0.0337
  0.2580	  8.5265	  0.0317
  0.2620	  8.3438	  0.0296
  0.2660	  8.1643	  0.0279
  0.2700	  8.0715	  0.0271
  0.2740	  7.9239	  0.0256
  0.2780	  7.8026	  0.0245
  0.2820	  7.5992	  0.0227
  0.2860	  7.5027	  0.0219
  0.2900	  7.3211	  0.0206
  0.2940	  7.2185	  0.0197
  0.2980	  7.0557	  0.0186
  0.3020	  6.9475	  0.0178
  0.3060	  6.8507	  0.0172
  0.3100	  6.7073	  0.0163
  0.3140	  6.6441	  0.0160
  0.3180	  6.5512	  0.0153
  0.3220	  6.5006	  0.0150
  0.3260	  6.3922	  0.0145
  0.3300	  6.3343	  0.0141
  0.3340	  6.2837	  0.0138
  0.3380	  6.2090	  0.0135
  0.3420	  6.1778	  0.0133
  0.3460	  6.1678	  0.0132
  0.3500	  6.0977	  0.0129
  0.3540	  6.0738	  0.0127
  0.3580	  6.0844	  0.0127
  0.3620	  6.0780	  0.0127
  0.3660	  6.0374	  0.0125
  0.3700	  6.0170	  0.0124
  0.3740	  6.0498	  0.0125
  0.3780	  6.0774	  0.0126
  0.3820	  6.0720	  0.0125
  0.3860	  6.0903	  0.0126
  0.3900	  6.0956	  0.0126
  0.3940	  6.1235	  0.0126
  0.3980	  6.1430	  0.0127
  0.4020	  6.1797	  0.0128
  0.4060	  6.2219	  0.0130
  0.4100	  6.2488	  0.0131
  0.4140	  6.3040	  0.0133
  0.4180	  6.3426	  0.0134
  0.4220	  6.3527	  0.0135
  0.4260	  6.4142	  0.0137
  0.4300	  6.4780	  0.0140
  0.4340	  6.5018	  0.0141
  0.4380	  6.5446	  0.0143
  0.4420	  6.6114	  0.0146
  0.4460	  6.6518	  0.0149
  0.4500	  6.6813	  0.0149
  0.4540	  6.7160	  0.0152
  0.4580	  6.7886	  0.0156
  0.4620	  6.8148	  0.0157
  0.4660	  6.8527	  0.0159
  0.4700	  6.9250	  0.0164
  0.4740	  6.9614	  0.0165
  0.4780	  6.9561	  0.0165
  0.4820	  7.0130	  0.0169
  0.4860	  7.0624	  0.0172
  0.4900	  7.0979	  0.0175
  0.4940	  7.1271	  0.0177
  0.4980	  7.1525	  0.0179
  0.5020	  7.2004	  0.0183
  0.5060	  7.2306	  0.0185
  0.5100	  7.2266	  0.0185
  0.5140	  7.2904	  0.0190
  0.5180	  7.3135	  0.0192
  0.5220	  7.3416	  0.0195
  0.5260	  7.3478	  0.0196
  0.5300	  7.3692	  0.0198
  0.5340	  7.3846	  0.0198
  0.5380	  7.3639	  0.0195
  0.5420	  7.3293	  0.0193
  0.5460	  7.2723	  0.0186
  0.5500	  7.2308	  0.0180
  0.5540	  7.1377	  0.0169
  0.5580	  6.9785	  0.0157
  0.5620	  6.8134	  0.0146
  0.5660	  6.6294	  0.0135
  0.5700	  6.4532	  0.0127
  0.5740	  6.2484	  0.0119
  0.5780	  6.0545	  0.0112
  0.5820	  5.8772	  0.0107
  0.5860	  5.7368	  0.0103
  0.5900	  5.5805	  0.0099
  0.5940	  5.4623	  0.0097
  0.5980	  5.3354	  0.0094
  0.6020	  5.2372	  0.0092
  0.6060	  5.1444	  0.0090
  0.6100	  5.0704	  0.0089
  0.6140	  5.0144	  0.0089
  0.6180	  4.9772	  0.0088
  0.6220	  4.9307	  0.0088
  0.6260	  4.9223	  0.0088
  0.6300	  4.8876	  0.0088
  0.6340	  4.8906	  0.0089
  0.6380	  4.8903	  0.0089
  0.6420	  4.9026	  0.0090
  0.6460	  4.9207	  0.0091
  0.6500	  4.9499	  0.0093
  0.6540	  4.9587	  0.0094
  0.6580	  4.9976	  0.0095
  0.6620	  5.0066	  0.0096
  0.6660	  5.0414	  0.0098
  0.6700	  5.0694	  0.0099
  0.6740	  5.1015	  0.0101
  0.6780	  5.1248	  0.0102
  0.6820	  5.1772	  0.0105
  0.6860	  5.1779	  0.0106
  0.6900	  5.2385	  0.0109
  0.6940	  5.2596	  0.0110
  0.6980	  5.2914	  0.0112
  0.7020	  5.3181	  0.0115
  0.7060	  5.3585	  0.0117
  0.7100	  5.3562	  0.0118
  0.7140	  5.4011	  0.0121
  0.7180	  5.4241	  0.0124
  0.7220	  5.4738	  0.0126
  0.7260	  5.5036	  0.0130
  0.7300	  5.5550	  0.0134
  0.7340	  5.5773	  0.0136
  0.7380	  5.6107	  0.0139
  0.7420	  5.6636	  0.0144
  0.7460	  5.7229	  0.0148
  0.7500	  5.8060	  0.0155
  0.7540	  5.8392	  0.0159
  0.7580	  5.9079	  0.0165
  0.7620	  5.9810	  0.0172
  0.7660	  6.0339	  0.0176
  0.7700	  6.0857	  0.0182
  0.7740	  6.1983	  0.0192
  0.7780	  6.2306	  0.0197
  0.7820	  6.3004	  0.0206
  0.7860	  6.3316	  0.0208
  0.7900	  6.3684	  0.0215
  0.7940	  6.4740	  0.0227
  0.7980	  0.0000	  0.0000
