# distance (nm)	f (kT)	df (kT)
  0.0020	  6.1404	  0.0302
  0.0060	  4.0980	  0.0145
  0.0100	  3.0284	  0.0118
  0.0140	  2.2845	  0.0109
  0.0180	  1.7395	  0.0105
  0.0220	  1.3053	  0.0103
  0.0260	  0.9634	  0.0102
  0.0300	  0.6912	  0.0101
  0.0340	  0.4719	  0.0100
  0.0380	  0.3183	  0.0100
  0.0420	  0.2096	  0.0100
  0.0460	  0.1464	  0.0100
  0.0500	  0.1336	  0.0101
  0.0540	  0.1644	  0.0101
  0.0580	  0.2402	  0.0102
  0.0620	  0.3603	  0.0103
  0.0660	  0.5303	  0.0104
  0.0700	  0.7437	  0.0106
  0.0740	  0.9810	  0.0109
  0.0780	  1.2478	  0.0112
  0.0820	  1.5243	  0.0117
  0.0860	  1.8218	  0.0125
  0.0900	  2.0861	  0.0135
  0.0940	  2.3130	  0.0147
  0.0980	  2.5045	  0.0160
  0.1020	  2.7051	  0.0175
  0.1060	  2.8431	  0.0187
  0.1100	  2.9837	  0.0201
  0.1140	  3.0918	  0.0213
  0.1180	  3.1715	  0.0224
  0.1220	  3.2741	  0.0237
  0.1260	  3.4427	  0.0257
  0.1300	  3.4721	  0.0266
  0.1340	  3.6210	  0.0287
  0.1380	  3.6525	  0.0294
  0.1420	  3.6970	  0.0305
  0.1460	  3.7751	  0.0321
  0.1500	  3.8074	  0.0330
  0.1540	  3.8346	  0.0340
  0.1580	  3.8565	  0.0348
  0.1620	  3.9329	  0.0364
  0.1660	  3.9315	  0.0376
  0.1700	  3.8907	  0.0371
  0.1740	  3.9218	  0.0384
  0.1780	  3.9037	  0.0389
  0.1820	  3.8940	  0.0392
  0.1860	  3.7660	  0.0383
  0.1900	  3.7370	  0.0382
  0.1940	  3.6236	  0.0369
  0.1980	  3.6143	  0.0377
  0.2020	  3.5434	  0.0370
  0.2060	  3.4619	  0.0365
  0.2100	  3.4110	  0.0365
  0.2140	  3.2199	  0.0341
  0.2180	  3.1376	  0.0335
  0.2220	  3.0630	  0.0332
  0.2260	  2.9592	  0.0323
  0.2300	  2.8674	  0.0314
  0.2340	  2.7669	  0.0307
  0.2380	  2.5867	  0.0289
  0.2420	  2.4745	  0.0281
  0.2460	  2.3539	  0.0271
  0.2500	  2.2378	  0.0262
  0.2540	  2.1360	  0.0255
  0.2580	  2.0046	  0.0245
  0.2620	  1.8452	  0.0232
  0.2660	  1.7046	  0.0222
  0.2700	  1.6252	  0.0217
  0.2740	  1.5120	  0.0209
  0.2780	  1.4034	  0.0202
  0.2820	  1.2580	  0.0193
  0.2860	  1.1835	  0.0189
  0.2900	  1.0489	  0.0181
  0.2940	  0.9629	  0.0176
  0.2980	  0.8433	  0.0170
  0.3020	  0.7462	  0.0165
  0.3060	  0.6780	  0.0162
  0.3100	  0.5751	  0.0157
  0.3140	  0.5190	  0.0154
  0.3180	  0.4342	  0.0151
  0.3220	  0.4039	  0.0150
  0.3260	  0.3242	  0.0146
  0.3300	  0.2638	  0.0144
  0.3340	  0.2172	  0.0142
  0.3380	  0.1723	  0.0141
  0.3420	  0.1442	  0.0140
  0.3460	  0.1265	  0.0139
  0.3500	  0.0745	  0.0137
  0.3540	  0.0569	  0.0136
  0.3580	  0.0561	  0.0136
  0.3620	  0.0496	  0.0136
  0.3660	  0.0203	  0.0135
  0.3700	  0.0000	  0.0000
  0.3740	  0.0214	  0.0135
  0.3780	  0.0457	  0.0136
  0.3820	  0.0321	  0.0135
  0.3860	  0.0518	  0.0136
  0.3900	  0.0581	  0.0136
  0.3940	  0.0814	  0.0137
  0.3980	  0.0904	  0.0137
  0.4020	  0.1264	  0.0138
  0.4060	  0.1652	  0.0139
  0.4100	  0.1859	  0.0139
  0.4140	  0.2273	  0.0141
  0.4180	  0.2648	  0.0142
  0.4220	  0.2812	  0.0142
  0.4260	  0.3239	  0.0144
  0.4300	  0.3698	  0.0145
  0.4340	  0.4096	  0.0146
  0.4380	  0.4416	  0.0147
  0.4420	  0.5034	  0.0150
  0.4460	  0.5538	  0.0151
  0.4500	  0.5765	  0.0152
  0.4540	  0.6288	  0.0154
  0.4580	  0.6980	  0.0156
  0.4620	  0.7317	  0.0157
  0.4660	  0.7753	  0.0158
  0.4700	  0.8475	  0.0161
  0.4740	  0.8795	  0.0162
  0.4780	  0.8943	  0.0162
  0.4820	  0.9682	  0.0165
  0.4860	  1.0216	  0.0167
  0.4900	  1.0758	  0.0168
  0.4940	  1.1182	  0.0170
  0.4980	  1.1693	  0.0171
  0.5020	  1.2330	  0.0174
  0.5060	  1.2598	  0.0174
  0.5100	  1.2980	  0.0174
  0.5140	  1.3671	  0.0177
  0.5180	  1.4183	  0.0178
  0.5220	  1.4611	  0.0178
  0.5260	  1.4675	  0.0176
  0.5300	  1.4901	  0.0175
  0.5340	  1.4544	  0.0171
  0.5380	  1.4099	  0.0166
  0.5420	  1.3512	  0.0161
  0.5460	  1.2622	  0.0155
  0.5500	  1.1850	  0.0150
  0.5540	  1.0775	  0.0145
  0.5580	  0.9518	  0.0139
  0.5620	  0.8385	  0.0134
  0.5660	  0.7141	  0.0129
  0.5700	  0.6367	  0.0126
  0.5740	  0.5355	  0.0123
  0.5780	  0.4508	  0.0120
  0.5820	  0.3920	  0.0118
  0.5860	  0.3413	  0.0116
  0.5900	  0.3031	  0.0114
  0.5940	  0.2776	  0.0113
  0.5980	  0.2624	  0.0112
  0.6020	  0.2722	  0.0112
  0.6060	  0.2815	  0.0111
  0.6100	  0.3064	  0.0111
  0.6140	  0.3379	  0.0110
  0.6180	  0.3922	  0.0110
  0.6220	  0.4436	  0.0110
  0.6260	  0.5149	  0.0110
  0.6300	  0.5752	  0.0111
  0.6340	  0.6632	  0.0111
  0.6380	  0.7447	  0.0111
  0.6420	  0.8453	  0.0112
  0.6460	  0.9334	  0.0112
  0.6500	  1.0409	  0.0113
  0.6540	  1.1365	  0.0114
  0.6580	  1.2599	  0.0115
  0.6620	  1.3407	  0.0115
  0.6660	  1.4571	  0.0116
  0.6700	  1.5631	  0.0117
  0.6740	  1.6878	  0.0118
  0.6780	  1.7804	  0.0118
  0.6820	  1.9054	  0.0119
  0.6860	  1.9974	  0.0120
  0.6900	  2.1445	  0.0122
  0.6940	  2.2402	  0.0122
  0.6980	  2.3670	  0.0124
  0.7020	  2.4876	  0.0125
  0.7060	  2.6108	  0.0126
  0.7100	  2.7205	  0.0127
  0.7140	  2.8476	  0.0129
  0.7180	  2.9872	  0.0131
  0.7220	  3.1043	  0.0132
  0.7260	  3.2537	  0.0134
  0.7300	  3.4033	  0.0136
  0.7340	  3.5321	  0.0138
  0.7380	  3.6638	  0.0140
  0.7420	  3.8149	  0.0143
  0.7460	  3.9669	  0.0146
  0.7500	  4.1408	  0.0150
  0.7540	  4.2782	  0.0152
  0.7580	  4.4493	  0.0157
  0.7620	  4.6082	  0.0161
  0.7660	  4.7422	  0.0163
  0.7700	  4.8940	  0.0167
  0.7740	  5.0769	  0.0173
  0.7780	  5.2124	  0.0176
  0.7820	  5.3968	  0.0182
  0.7860	  5.5274	  0.0186
  0.7900	  5.6705	  0.0190
  0.7940	  5.8515	  0.0196
  0.7980	  3.9825	  0.0110
