# distance (nm)	f (kT)	df (kT)
  0.0020	  8.7004	  0.0295
  0.0060	  6.6485	  0.0129
  0.0100	  5.5786	  0.0098
  0.0140	  4.8438	  0.0086
  0.0180	  4.3242	  0.0081
  0.0220	  3.9326	  0.0079
  0.0260	  3.6493	  0.0077
  0.0300	  3.4561	  0.0076
  0.0340	  3.3363	  0.0076
  0.0380	  3.3042	  0.0076
  0.0420	  3.3417	  0.0076
  0.0460	  3.4499	  0.0076
  0.0500	  3.6340	  0.0077
  0.0540	  3.8827	  0.0078
  0.0580	  4.1985	  0.0080
  0.0620	  4.5596	  0.0083
  0.0660	  4.9515	  0.0089
  0.0700	  5.3570	  0.0099
  0.0740	  5.7089	  0.0111
  0.0780	  6.0394	  0.0126
  0.0820	  6.3351	  0.0141
  0.0860	  6.6034	  0.0158
  0.0900	  6.8536	  0.0174
  0.0940	  7.0616	  0.0189
  0.0980	  7.2839	  0.0206
  0.1020	  7.5626	  0.0230
  0.1060	  7.7493	  0.0249
  0.1100	  7.9900	  0.0274
  0.1140	  8.1661	  0.0294
  0.1180	  8.3116	  0.0311
  0.1220	  8.4842	  0.0334
  0.1260	  8.7769	  0.0374
  0.1300	  8.8208	  0.0386
  0.1340	  9.0629	  0.0423
  0.1380	  9.1628	  0.0448
  0.1420	  9.2374	  0.0463
  0.1460	  9.3329	  0.0487
  0.1500	  9.4513	  0.0505
  0.1540	  9.4625	  0.0516
  0.1580	  9.5042	  0.0542
  0.1620	  9.6269	  0.0591
  0.1660	  9.5095	  0.0591
  0.1700	  9.5696	  0.0607
  0.1740	  9.5772	  0.0601
  0.1780	  9.4935	  0.0601
  0.1820	  9.5156	  0.0629
  0.1860	  9.2157	  0.0594
  0.1900	  9.1807	  0.0591
  0.1940	  9.0926	  0.0576
  0.1980	  8.9331	  0.0584
  0.2020	  8.8096	  0.0586
  0.2060	  8.6207	  0.0563
  0.2100	  8.4797	  0.0565
  0.2140	  8.1871	  0.0519
  0.2180	  7.9971	  0.0509
  0.2220	  7.7612	  0.0502
  0.2260	  7.5819	  0.0483
  0.2300	  7.4272	  0.0471
  0.2340	  7.1777	  0.0449
  0.2380	  6.8760	  0.0422
  0.2420	  6.6165	  0.0400
  0.2460	  6.3622	  0.0378
  0.2500	  6.0980	  0.0364
  0.2540	  5.8769	  0.0347
  0.2580	  5.5816	  0.0326
  0.2620	  5.3266	  0.0305
  0.2660	  5.0468	  0.0285
  0.2700	  4.8570	  0.0276
  0.2740	  4.6264	  0.0263
  0.2780	  4.4122	  0.0253
  0.2820	  4.1213	  0.0232
  0.2860	  3.9332	  0.0226
  0.2900	  3.6725	  0.0211
  0.2940	  3.4967	  0.0203
  0.2980	  3.2644	  0.0192
  0.3020	  3.0700	  0.0184
  0.3060	  2.9013	  0.0178
  0.3100	  2.7087	  0.0169
  0.3140	  2.5647	  0.0166
  0.3180	  2.3984	  0.0159
  0.3220	  2.2917	  0.0156
  0.3260	  2.1350	  0.0151
  0.3300	  2.0031	  0.0147
  0.3340	  1.9064	  0.0144
  0.3380	  1.7754	  0.0141
  0.3420	  1.6916	  0.0139
  0.3460	  1.6260	  0.0138
  0.3500	  1.5030	  0.0135
  0.3540	  1.4346	  0.0133
  0.3580	  1.4093	  0.0133
  0.3620	  1.3491	  0.0133
  0.3660	  1.2635	  0.0130
  0.3700	  1.2045	  0.0129
  0.3740	  1.1943	  0.0130
  0.3780	  1.1925	  0.0131
  0.3820	  1.1453	  0.0131
  0.3860	  1.1351	  0.0131
  0.3900	  1.0995	  0.0131
  0.3940	  1.1002	  0.0132
  0.3980	  1.0925	  0.0132
  0.4020	  1.0966	  0.0134
  0.4060	  1.1117	  0.0135
  0.4100	  1.1066	  0.0136
  0.4140	  1.1323	  0.0138
  0.4180	  1.1516	  0.0140
  0.4220	  1.1304	  0.0140
  0.4260	  1.1705	  0.0142
  0.4300	  1.2143	  0.0145
  0.4340	  1.2130	  0.0146
  0.4380	  1.2222	  0.0147
  0.4420	  1.2844	  0.0151
  0.4460	  1.3049	  0.0153
  0.4500	  1.3194	  0.0154
  0.4540	  1.3386	  0.0156
  0.4580	  1.3938	  0.0160
  0.4620	  1.4130	  0.0162
  0.4660	  1.4281	  0.0164
  0.4700	  1.4940	  0.0168
  0.4740	  1.5100	  0.0169
  0.4780	  1.4986	  0.0169
  0.4820	  1.5556	  0.0174
  0.4860	  1.5941	  0.0176
  0.4900	  1.6246	  0.0179
  0.4940	  1.6516	  0.0181
  0.4980	  1.6826	  0.0183
  0.5020	  1.7168	  0.0186
  0.5060	  1.7371	  0.0188
  0.5100	  1.7443	  0.0188
  0.5140	  1.8178	  0.0194
  0.5180	  1.8297	  0.0195
  0.5220	  1.8701	  0.0198
  0.5260	  1.8783	  0.0198
  0.5300	  1.8960	  0.0200
  0.5340	  1.9351	  0.0201
  0.5380	  1.9311	  0.0199
  0.5420	  1.9201	  0.0198
  0.5460	  1.8943	  0.0193
  0.5500	  1.8858	  0.0189
  0.5540	  1.8224	  0.0179
  0.5580	  1.7055	  0.0167
  0.5620	  1.5588	  0.0154
  0.5660	  1.4066	  0.0142
  0.5700	  1.2459	  0.0133
  0.5740	  1.0396	  0.0125
  0.5780	  0.8705	  0.0118
  0.5820	  0.7052	  0.0112
  0.5860	  0.5754	  0.0108
  0.5900	  0.4398	  0.0104
  0.5940	  0.3324	  0.0101
  0.5980	  0.2282	  0.0098
  0.6020	  0.1568	  0.0097
  0.6060	  0.0888	  0.0095
  0.6100	  0.0409	  0.0094
  0.6140	  0.0114	  0.0093
  0.6180	  0.0129	  0.0093
  0.6220	  0.0000	  0.0000
  0.6260	  0.0273	  0.0092
  0.6300	  0.0319	  0.0092
  0.6340	  0.0807	  0.0093
  0.6380	  0.1230	  0.0093
  0.6420	  0.1854	  0.0094
  0.6460	  0.2457	  0.0095
  0.6500	  0.3240	  0.0096
  0.6540	  0.3825	  0.0097
  0.6580	  0.4766	  0.0098
  0.6620	  0.5361	  0.0099
  0.6660	  0.6211	  0.0101
  0.6700	  0.7138	  0.0102
  0.6740	  0.8048	  0.0104
  0.6780	  0.8855	  0.0105
  0.6820	  0.9911	  0.0107
  0.6860	  1.0582	  0.0108
  0.6900	  1.1773	  0.0111
  0.6940	  1.2656	  0.0112
  0.6980	  1.3537	  0.0114
  0.7020	  1.4630	  0.0116
  0.7060	  1.5630	  0.0118
  0.7100	  1.6233	  0.0119
  0.7140	  1.7223	  0.0121
  0.7180	  1.8250	  0.0124
  0.7220	  1.9200	  0.0126
  0.7260	  2.0244	  0.0129
  0.7300	  2.1428	  0.0133
  0.7340	  2.2388	  0.0136
  0.7380	  2.3363	  0.0139
  0.7420	  2.4458	  0.0142
  0.7460	  2.5859	  0.0147
  0.7500	  2.7314	  0.0153
  0.7540	  2.8349	  0.0157
  0.7580	  2.9676	  0.0162
  0.7620	  3.1192	  0.0169
  0.7660	  3.2255	  0.0173
  0.7700	  3.3620	  0.0179
  0.7740	  3.5354	  0.0188
  0.7780	  3.6207	  0.0192
  0.7820	  3.7890	  0.0201
  0.7860	  3.8920	  0.0205
  0.7900	  3.9934	  0.0210
  0.7940	  4.1758	  0.0222
  0.7980	  2.1073	  0.0089
