# distance (nm)	f (kT)	df (kT)
  0.0020	  5.6282	  0.0287
  0.0060	  3.5923	  0.0111
  0.0100	  2.5333	  0.0071
  0.0140	  1.8033	  0.0055
  0.0180	  1.2778	  0.0047
  0.0220	  0.8691	  0.0042
  0.0260	  0.5582	  0.0039
  0.0300	  0.3238	  0.0038
  0.0340	  0.1493	  0.0037
  0.0380	  0.0479	  0.0037
  0.0420	  0.0000	  0.0000
  0.0460	  0.0063	  0.0037
  0.0500	  0.0728	  0.0038
  0.0540	  0.1910	  0.0040
  0.0580	  0.3650	  0.0042
  0.0620	  0.5891	  0.0045
  0.0660	  0.8658	  0.0049
  0.0700	  1.1874	  0.0054
  0.0740	  1.5139	  0.0062
  0.0780	  1.8525	  0.0074
  0.0820	  2.1736	  0.0088
  0.0860	  2.4784	  0.0105
  0.0900	  2.7308	  0.0122
  0.0940	  2.9338	  0.0138
  0.0980	  3.1243	  0.0153
  0.1020	  3.3464	  0.0171
  0.1060	  3.5023	  0.0187
  0.1100	  3.6847	  0.0204
  0.1140	  3.8207	  0.0219
  0.1180	  3.9302	  0.0233
  0.1220	  4.0685	  0.0250
  0.1260	  4.2910	  0.0276
  0.1300	  4.3342	  0.0286
  0.1340	  4.5250	  0.0314
  0.1380	  4.5921	  0.0324
  0.1420	  4.6600	  0.0338
  0.1460	  4.7572	  0.0359
  0.1500	  4.8225	  0.0368
  0.1540	  4.8565	  0.0381
  0.1580	  4.9020	  0.0394
  0.1620	  5.0101	  0.0418
  0.1660	  4.9806	  0.0429
  0.1700	  4.9836	  0.0424
  0.1740	  5.0089	  0.0436
  0.1780	  4.9843	  0.0443
  0.1820	  4.9952	  0.0447
  0.1860	  4.8196	  0.0431
  0.1900	  4.8061	  0.0435
  0.1940	  4.6998	  0.0413
  0.1980	  4.6592	  0.0425
  0.2020	  4.5910	  0.0421
  0.2060	  4.4860	  0.0414
  0.2100	  4.4093	  0.0409
  0.2140	  4.1979	  0.0381
  0.2180	  4.0967	  0.0375
  0.2220	  3.9818	  0.0371
  0.2260	  3.8615	  0.0358
  0.2300	  3.7613	  0.0348
  0.2340	  3.6208	  0.0337
  0.2380	  3.4128	  0.0314
  0.2420	  3.2588	  0.0302
  0.2460	  3.1048	  0.0289
  0.2500	  2.9541	  0.0277
  0.2540	  2.8219	  0.0268
  0.2580	  2.6449	  0.0253
  0.2620	  2.4651	  0.0237
  0.2660	  2.2862	  0.0223
  0.2700	  2.1842	  0.0217
  0.2740	  2.0436	  0.0207
  0.2780	  1.9144	  0.0198
  0.2820	  1.7234	  0.0185
  0.2860	  1.6257	  0.0180
  0.2900	  1.4563	  0.0169
  0.2940	  1.3530	  0.0163
  0.2980	  1.2054	  0.0154
  0.3020	  1.0881	  0.0147
  0.3060	  0.9973	  0.0143
  0.3100	  0.8724	  0.0136
  0.3140	  0.8021	  0.0133
  0.3180	  0.6979	  0.0127
  0.3220	  0.6506	  0.0126
  0.3260	  0.5577	  0.0121
  0.3300	  0.4855	  0.0118
  0.3340	  0.4343	  0.0115
  0.3380	  0.3681	  0.0112
  0.3420	  0.3339	  0.0111
  0.3460	  0.3136	  0.0110
  0.3500	  0.2465	  0.0107
  0.3540	  0.2202	  0.0106
  0.3580	  0.2249	  0.0106
  0.3620	  0.2122	  0.0106
  0.3660	  0.1728	  0.0104
  0.3700	  0.1513	  0.0103
  0.3740	  0.1741	  0.0104
  0.3780	  0.2003	  0.0105
  0.3820	  0.1893	  0.0105
  0.3860	  0.2096	  0.0105
  0.3900	  0.2132	  0.0105
  0.3940	  0.2377	  0.0106
  0.3980	  0.2550	  0.0107
  0.4020	  0.2902	  0.0108
  0.4060	  0.3316	  0.0110
  0.4100	  0.3576	  0.0111
  0.4140	  0.4043	  0.0112
  0.4180	  0.4478	  0.0114
  0.4220	  0.4632	  0.0114
  0.4260	  0.5167	  0.0116
  0.4300	  0.5745	  0.0119
  0.4340	  0.6105	  0.0120
  0.4380	  0.6469	  0.0121
  0.4420	  0.7226	  0.0125
  0.4460	  0.7737	  0.0127
  0.4500	  0.8053	  0.0128
  0.4540	  0.8565	  0.0130
  0.4580	  0.9334	  0.0133
  0.4620	  0.9744	  0.0135
  0.4660	  1.0194	  0.0136
  0.4700	  1.1020	  0.0140
  0.4740	  1.1413	  0.0141
  0.4780	  1.1574	  0.0141
  0.4820	  1.2409	  0.0145
  0.4860	  1.2982	  0.0147
  0.4900	  1.3551	  0.0149
  0.4940	  1.4051	  0.0151
  0.4980	  1.4623	  0.0153
  0.5020	  1.5256	  0.0156
  0.5060	  1.5660	  0.0157
  0.5100	  1.6039	  0.0157
  0.5140	  1.6911	  0.0161
  0.5180	  1.7403	  0.0163
  0.5220	  1.8003	  0.0165
  0.5260	  1.8288	  0.0164
  0.5300	  1.8721	  0.0165
  0.5340	  1.8932	  0.0162
  0.5380	  1.8819	  0.0157
  0.5420	  1.8698	  0.0152
  0.5460	  1.8123	  0.0144
  0.5500	  1.7713	  0.0137
  0.5540	  1.6753	  0.0129
  0.5580	  1.5521	  0.0119
  0.5620	  1.4280	  0.0111
  0.5660	  1.2911	  0.0103
  0.5700	  1.1888	  0.0098
  0.5740	  1.0575	  0.0092
  0.5780	  0.9498	  0.0087
  0.5820	  0.8616	  0.0083
  0.5860	  0.7918	  0.0079
  0.5900	  0.7268	  0.0076
  0.5940	  0.6829	  0.0074
  0.5980	  0.6452	  0.0072
  0.6020	  0.6350	  0.0071
  0.6060	  0.6271	  0.0070
  0.6100	  0.6370	  0.0069
  0.6140	  0.6571	  0.0068
  0.6180	  0.7045	  0.0068
  0.6220	  0.7444	  0.0068
  0.6260	  0.8128	  0.0068
  0.6300	  0.8633	  0.0068
  0.6340	  0.9498	  0.0069
  0.6380	  1.0278	  0.0069
  0.6420	  1.1270	  0.0070
  0.6460	  1.2189	  0.0071
  0.6500	  1.3280	  0.0072
  0.6540	  1.4235	  0.0073
  0.6580	  1.5465	  0.0075
  0.6620	  1.6333	  0.0076
  0.6660	  1.7503	  0.0077
  0.6700	  1.8627	  0.0078
  0.6740	  1.9866	  0.0080
  0.6780	  2.0882	  0.0081
  0.6820	  2.2178	  0.0083
  0.6860	  2.3132	  0.0084
  0.6900	  2.4617	  0.0086
  0.6940	  2.5670	  0.0088
  0.6980	  2.6873	  0.0089
  0.7020	  2.8180	  0.0091
  0.7060	  2.9438	  0.0093
  0.7100	  3.0448	  0.0095
  0.7140	  3.1734	  0.0097
  0.7180	  3.3101	  0.0100
  0.7220	  3.4311	  0.0101
  0.7260	  3.5782	  0.0105
  0.7300	  3.7284	  0.0108
  0.7340	  3.8558	  0.0110
  0.7380	  3.9884	  0.0113
  0.7420	  4.1355	  0.0117
  0.7460	  4.2940	  0.0121
  0.7500	  4.4731	  0.0126
  0.7540	  4.6104	  0.0129
  0.7580	  4.7777	  0.0135
  0.7620	  4.9477	  0.0140
  0.7660	  5.0832	  0.0143
  0.7700	  5.2436	  0.0148
  0.7740	  5.4346	  0.0156
  0.7780	  5.5651	  0.0160
  0.7820	  5.7562	  0.0167
  0.7860	  5.8838	  0.0171
  0.7900	  6.0246	  0.0176
  0.7940	  6.2238	  0.0185
  0.7980	  4.3808	  0.0069
