# distance (nm)	f (kT)	df (kT)
  0.0020	  9.8692	  0.0293
  0.0060	  7.8055	  0.0125
  0.0100	  6.7158	  0.0092
  0.0140	  5.9544	  0.0080
  0.0180	  5.3972	  0.0074
  0.0220	  4.9567	  0.0071
  0.0260	  4.6140	  0.0070
  0.0300	  4.3476	  0.0069
  0.0340	  4.1414	  0.0068
  0.0380	  4.0081	  0.0068
  0.0420	  3.9282	  0.0068
  0.0460	  3.9026	  0.0068
  0.0500	  3.9371	  0.0069
  0.0540	  4.0234	  0.0070
  0.0580	  4.1655	  0.0071
  0.0620	  4.3577	  0.0072
  0.0660	  4.6025	  0.0075
  0.0700	  4.8920	  0.0079
  0.0740	  5.1865	  0.0084
  0.0780	  5.4931	  0.0093
  0.0820	  5.7821	  0.0104
  0.0860	  6.0546	  0.0119
  0.0900	  6.2751	  0.0134
  0.0940	  6.4459	  0.0149
  0.0980	  6.6040	  0.0163
  0.1020	  6.7943	  0.0181
  0.1060	  6.9180	  0.0195
  0.1100	  7.0678	  0.0212
  0.1140	  7.1721	  0.0226
  0.1180	  7.2500	  0.0239
  0.1220	  7.3557	  0.0256
  0.1260	  7.5461	  0.0282
  0.1300	  7.5570	  0.0292
  0.1340	  7.7158	  0.0319
  0.1380	  7.7510	  0.0329
  0.1420	  7.7872	  0.0343
  0.1460	  7.8520	  0.0363
  0.1500	  7.8854	  0.0372
  0.1540	  7.8871	  0.0385
  0.1580	  7.9007	  0.0398
  0.1620	  7.9766	  0.0421
  0.1660	  7.9141	  0.0432
  0.1700	  7.8857	  0.0427
  0.1740	  7.8785	  0.0439
  0.1780	  7.8223	  0.0447
  0.1820	  7.8005	  0.0450
  0.1860	  7.5934	  0.0435
  0.1900	  7.5478	  0.0439
  0.1940	  7.4095	  0.0417
  0.1980	  7.3362	  0.0429
  0.2020	  7.2362	  0.0425
  0.2060	  7.0994	  0.0418
  0.2100	  6.9902	  0.0412
  0.2140	  6.7478	  0.0385
  0.2180	  6.6140	  0.0379
  0.2220	  6.4665	  0.0375
  0.2260	  6.3139	  0.0362
  0.2300	  6.1826	  0.0352
  0.2340	  6.0097	  0.0341
  0.2380	  5.7692	  0.0318
  0.2420	  5.5831	  0.0306
  0.2460	  5.3972	  0.0294
  0.2500	  5.2148	  0.0282
  0.2540	  5.0501	  0.0273
  0.2580	  4.8413	  0.0259
  0.2620	  4.6295	  0.0243
  0.2660	  4.4183	  0.0229
  0.2700	  4.2843	  0.0223
  0.2740	  4.1120	  0.0214
  0.2780	  3.9501	  0.0205
  0.2820	  3.7274	  0.0192
  0.2860	  3.5976	  0.0187
  0.2900	  3.3964	  0.0176
  0.2940	  3.2609	  0.0171
  0.2980	  3.0812	  0.0162
  0.3020	  2.9318	  0.0156
  0.3060	  2.8088	  0.0151
  0.3100	  2.6519	  0.0145
  0.3140	  2.5498	  0.0142
  0.3180	  2.4132	  0.0137
  0.3220	  2.3341	  0.0135
  0.3260	  2.2092	  0.0131
  0.3300	  2.1048	  0.0128
  0.3340	  2.0215	  0.0126
  0.3380	  1.9235	  0.0123
  0.3420	  1.8573	  0.0122
  0.3460	  1.8047	  0.0121
  0.3500	  1.7056	  0.0118
  0.3540	  1.6474	  0.0117
  0.3580	  1.6200	  0.0117
  0.3620	  1.5752	  0.0117
  0.3660	  1.5037	  0.0115
  0.3700	  1.4502	  0.0114
  0.3740	  1.4409	  0.0115
  0.3780	  1.4350	  0.0116
  0.3820	  1.3920	  0.0115
  0.3860	  1.3802	  0.0116
  0.3900	  1.3518	  0.0116
  0.3940	  1.3443	  0.0117
  0.3980	  1.3296	  0.0117
  0.4020	  1.3327	  0.0118
  0.4060	  1.3420	  0.0120
  0.4100	  1.3359	  0.0120
  0.4140	  1.3505	  0.0122
  0.4180	  1.3620	  0.0124
  0.4220	  1.3454	  0.0124
  0.4260	  1.3669	  0.0126
  0.4300	  1.3926	  0.0128
  0.4340	  1.3966	  0.0129
  0.4380	  1.4008	  0.0130
  0.4420	  1.4444	  0.0133
  0.4460	  1.4634	  0.0135
  0.4500	  1.4631	  0.0136
  0.4540	  1.4822	  0.0138
  0.4580	  1.5271	  0.0141
  0.4620	  1.5360	  0.0142
  0.4660	  1.5489	  0.0144
  0.4700	  1.5997	  0.0147
  0.4740	  1.6069	  0.0148
  0.4780	  1.5907	  0.0148
  0.4820	  1.6421	  0.0152
  0.4860	  1.6673	  0.0154
  0.4900	  1.6924	  0.0156
  0.4940	  1.7100	  0.0158
  0.4980	  1.7354	  0.0160
  0.5020	  1.7667	  0.0162
  0.5060	  1.7751	  0.0163
  0.5100	  1.7807	  0.0164
  0.5140	  1.8359	  0.0167
  0.5180	  1.8532	  0.0169
  0.5220	  1.8809	  0.0171
  0.5260	  1.8771	  0.0170
  0.5300	  1.8884	  0.0171
  0.5340	  1.8775	  0.0168
  0.5380	  1.8343	  0.0163
  0.5420	  1.7898	  0.0158
  0.5460	  1.7005	  0.0150
  0.5500	  1.6271	  0.0144
  0.5540	  1.4991	  0.0136
  0.5580	  1.3436	  0.0127
  0.5620	  1.1873	  0.0120
  0.5660	  1.0185	  0.0112
  0.5700	  0.8841	  0.0107
  0.5740	  0.7209	  0.0101
  0.5780	  0.5810	  0.0097
  0.5820	  0.4608	  0.0093
  0.5860	  0.3589	  0.0090
  0.5900	  0.2619	  0.0088
  0.5940	  0.1861	  0.0085
  0.5980	  0.1163	  0.0084
  0.6020	  0.0741	  0.0083
  0.6060	  0.0342	  0.0081
  0.6100	  0.0122	  0.0081
  0.6140	  0.0000	  0.0000
  0.6180	  0.0155	  0.0080
  0.6220	  0.0233	  0.0080
  0.6260	  0.0596	  0.0080
  0.6300	  0.0782	  0.0080
  0.6340	  0.1326	  0.0081
  0.6380	  0.1786	  0.0081
  0.6420	  0.2458	  0.0082
  0.6460	  0.3056	  0.0083
  0.6500	  0.3826	  0.0084
  0.6540	  0.4460	  0.0084
  0.6580	  0.5370	  0.0086
  0.6620	  0.5917	  0.0086
  0.6660	  0.6766	  0.0088
  0.6700	  0.7570	  0.0089
  0.6740	  0.8490	  0.0090
  0.6780	  0.9184	  0.0091
  0.6820	  1.0158	  0.0093
  0.6860	  1.0792	  0.0093
  0.6900	  1.1958	  0.0096
  0.6940	  1.2689	  0.0097
  0.6980	  1.3572	  0.0098
  0.7020	  1.4559	  0.0100
  0.7060	  1.5494	  0.0102
  0.7100	  1.6185	  0.0103
  0.7140	  1.7150	  0.0105
  0.7180	  1.8197	  0.0108
  0.7220	  1.9087	  0.0109
  0.7260	  2.0235	  0.0112
  0.7300	  2.1418	  0.0115
  0.7340	  2.2372	  0.0118
  0.7380	  2.3376	  0.0120
  0.7420	  2.4527	  0.0124
  0.7460	  2.5793	  0.0127
  0.7500	  2.7263	  0.0133
  0.7540	  2.8314	  0.0136
  0.7580	  2.9666	  0.0141
  0.7620	  3.1049	  0.0146
  0.7660	  3.2081	  0.0149
  0.7700	  3.3365	  0.0154
  0.7740	  3.4953	  0.0161
  0.7780	  3.5940	  0.0165
  0.7820	  3.7528	  0.0172
  0.7860	  3.8485	  0.0176
  0.7900	  3.9570	  0.0181
  0.7940	  4.1242	  0.0190
  0.7980	  2.0063	  0.0076
