# distance (nm)	f (kT)	df (kT)
  0.0020	 12.0588	  0.0295
  0.0060	  9.9806	  0.0128
  0.0100	  8.8675	  0.0096
  0.0140	  8.0756	  0.0084
  0.0180	  7.4762	  0.0079
  0.0220	  6.9799	  0.0076
  0.0260	  6.5696	  0.0075
  0.0300	  6.2217	  0.0074
  0.0340	  5.9182	  0.0073
  0.0380	  5.6718	  0.0073
  0.0420	  5.4607	  0.0073
  0.0460	  5.2851	  0.0073
  0.0500	  5.1480	  0.0074
  0.0540	  5.0444	  0.0074
  0.0580	  4.9720	  0.0075
  0.0620	  4.9332	  0.0077
  0.0660	  4.9346	  0.0079
  0.0700	  4.9664	  0.0081
  0.0740	  5.0248	  0.0084
  0.0780	  5.1122	  0.0088
  0.0820	  5.2190	  0.0092
  0.0860	  5.3775	  0.0099
  0.0900	  5.5354	  0.0106
  0.0940	  5.7156	  0.0114
  0.0980	  5.8743	  0.0124
  0.1020	  6.0444	  0.0136
  0.1060	  6.1768	  0.0148
  0.1100	  6.2859	  0.0162
  0.1140	  6.3865	  0.0177
  0.1180	  6.4432	  0.0190
  0.1220	  6.4857	  0.0203
  0.1260	  6.5689	  0.0222
  0.1300	  6.5627	  0.0231
  0.1340	  6.6273	  0.0249
  0.1380	  6.6127	  0.0259
  0.1420	  6.5713	  0.0264
  0.1460	  6.5819	  0.0276
  0.1500	  6.5638	  0.0286
  0.1540	  6.5490	  0.0295
  0.1580	  6.5055	  0.0301
  0.1620	  6.5233	  0.0317
  0.1660	  6.4943	  0.0324
  0.1700	  6.3865	  0.0320
  0.1740	  6.3940	  0.0332
  0.1780	  6.3498	  0.0338
  0.1820	  6.2955	  0.0342
  0.1860	  6.1719	  0.0333
  0.1900	  6.0823	  0.0330
  0.1940	  5.9683	  0.0324
  0.1980	  5.9364	  0.0330
  0.2020	  5.8056	  0.0320
  0.2060	  5.7286	  0.0319
  0.2100	  5.6996	  0.0324
  0.2140	  5.4808	  0.0301
  0.2180	  5.3676	  0.0294
  0.2220	  5.3062	  0.0294
  0.2260	  5.1947	  0.0287
  0.2300	  5.0787	  0.0279
  0.2340	  4.9848	  0.0274
  0.2380	  4.8143	  0.0259
  0.2420	  4.7142	  0.0253
  0.2460	  4.5940	  0.0245
  0.2500	  4.4789	  0.0237
  0.2540	  4.3687	  0.0231
  0.2580	  4.2652	  0.0224
  0.2620	  4.1013	  0.0212
  0.2660	  3.9734	  0.0204
  0.2700	  3.8865	  0.0200
  0.2740	  3.7564	  0.0192
  0.2780	  3.6446	  0.0187
  0.2820	  3.5247	  0.0179
  0.2860	  3.4427	  0.0175
  0.2900	  3.3130	  0.0168
  0.2940	  3.2127	  0.0164
  0.2980	  3.0889	  0.0157
  0.3020	  2.9862	  0.0153
  0.3060	  2.9118	  0.0150
  0.3100	  2.8033	  0.0145
  0.3140	  2.7216	  0.0143
  0.3180	  2.6358	  0.0140
  0.3220	  2.5956	  0.0139
  0.3260	  2.4912	  0.0135
  0.3300	  2.4094	  0.0133
  0.3340	  2.3364	  0.0131
  0.3380	  2.2868	  0.0129
  0.3420	  2.2360	  0.0128
  0.3460	  2.1756	  0.0128
  0.3500	  2.1163	  0.0126
  0.3540	  2.0778	  0.0125
  0.3580	  2.0367	  0.0125
  0.3620	  1.9957	  0.0125
  0.3660	  1.9479	  0.0124
  0.3700	  1.8976	  0.0123
  0.3740	  1.8855	  0.0124
  0.3780	  1.8748	  0.0125
  0.3820	  1.8174	  0.0124
  0.3860	  1.8045	  0.0125
  0.3900	  1.7745	  0.0125
  0.3940	  1.7717	  0.0126
  0.3980	  1.7392	  0.0126
  0.4020	  1.7359	  0.0127
  0.4060	  1.7386	  0.0129
  0.4100	  1.7159	  0.0130
  0.4140	  1.7241	  0.0131
  0.4180	  1.7129	  0.0133
  0.4220	  1.7013	  0.0133
  0.4260	  1.6969	  0.0135
  0.4300	  1.6988	  0.0137
  0.4340	  1.7015	  0.0138
  0.4380	  1.7027	  0.0139
  0.4420	  1.7102	  0.0142
  0.4460	  1.7256	  0.0144
  0.4500	  1.7024	  0.0144
  0.4540	  1.7213	  0.0146
  0.4580	  1.7483	  0.0150
  0.4620	  1.7360	  0.0150
  0.4660	  1.7488	  0.0152
  0.4700	  1.7714	  0.0155
  0.4740	  1.7572	  0.0156
  0.4780	  1.7350	  0.0155
  0.4820	  1.7631	  0.0159
  0.4860	  1.7792	  0.0161
  0.4900	  1.8033	  0.0163
  0.4940	  1.7966	  0.0164
  0.4980	  1.7990	  0.0166
  0.5020	  1.8235	  0.0168
  0.5060	  1.7821	  0.0167
  0.5100	  1.7681	  0.0167
  0.5140	  1.7683	  0.0169
  0.5180	  1.7464	  0.0168
  0.5220	  1.7089	  0.0168
  0.5260	  1.6109	  0.0164
  0.5300	  1.5456	  0.0162
  0.5340	  1.3851	  0.0154
  0.5380	  1.2872	  0.0149
  0.5420	  1.1451	  0.0142
  0.5460	  1.0300	  0.0136
  0.5500	  0.8907	  0.0129
  0.5540	  0.7831	  0.0123
  0.5580	  0.6551	  0.0117
  0.5620	  0.5306	  0.0112
  0.5660	  0.4159	  0.0107
  0.5700	  0.3461	  0.0104
  0.5740	  0.2562	  0.0100
  0.5780	  0.1825	  0.0097
  0.5820	  0.1310	  0.0095
  0.5860	  0.0822	  0.0093
  0.5900	  0.0437	  0.0091
  0.5940	  0.0146	  0.0089
  0.5980	  0.0000	  0.0000
  0.6020	  0.0041	  0.0088
  0.6060	  0.0008	  0.0087
  0.6100	  0.0122	  0.0087
  0.6140	  0.0267	  0.0086
  0.6180	  0.0554	  0.0086
  0.6220	  0.0884	  0.0086
  0.6260	  0.1297	  0.0087
  0.6300	  0.1704	  0.0087
  0.6340	  0.2248	  0.0087
  0.6380	  0.2818	  0.0088
  0.6420	  0.3481	  0.0089
  0.6460	  0.3959	  0.0090
  0.6500	  0.4668	  0.0091
  0.6540	  0.5280	  0.0091
  0.6580	  0.6197	  0.0093
  0.6620	  0.6568	  0.0093
  0.6660	  0.7399	  0.0095
  0.6700	  0.8076	  0.0096
  0.6740	  0.8959	  0.0097
  0.6780	  0.9453	  0.0098
  0.6820	  1.0360	  0.0100
  0.6860	  1.0927	  0.0100
  0.6900	  1.2050	  0.0103
  0.6940	  1.2617	  0.0103
  0.6980	  1.3676	  0.0105
  0.7020	  1.4422	  0.0107
  0.7060	  1.5306	  0.0109
  0.7100	  1.6250	  0.0110
  0.7140	  1.7168	  0.0112
  0.7180	  1.8251	  0.0115
  0.7220	  1.9051	  0.0116
  0.7260	  2.0201	  0.0119
  0.7300	  2.1361	  0.0123
  0.7340	  2.2334	  0.0125
  0.7380	  2.3316	  0.0128
  0.7420	  2.4557	  0.0131
  0.7460	  2.5655	  0.0135
  0.7500	  2.6964	  0.0140
  0.7540	  2.7985	  0.0143
  0.7580	  2.9459	  0.0148
  0.7620	  3.0492	  0.0153
  0.7660	  3.1476	  0.0156
  0.7700	  3.2540	  0.0161
  0.7740	  3.3910	  0.0167
  0.7780	  3.4933	  0.0171
  0.7820	  3.6438	  0.0178
  0.7860	  3.7455	  0.0182
  0.7900	  3.8626	  0.0187
  0.7940	  3.9802	  0.0195
  0.7980	  1.7772	  0.0080
