# distance (nm)	f (kT)	df (kT)
  0.0020	  5.7271	  0.1064
  0.0060	  3.7205	  0.0410
  0.0100	  2.8439	  0.0286
  0.0140	  2.2196	  0.0233
  0.0180	  1.8388	  0.0210
  0.0220	  1.5627	  0.0197
  0.0260	  1.3626	  0.0189
  0.0300	  1.2672	  0.0185
  0.0340	  1.2111	  0.0183
  0.0380	  1.2346	  0.0182
  0.0420	  1.3072	  0.0182
  0.0460	  1.4311	  0.0184
  0.0500	  1.6186	  0.0187
  0.0540	  1.8275	  0.0190
  0.0580	  2.1425	  0.0197
  0.0620	  2.4633	  0.0204
  0.0660	  2.8476	  0.0216
  0.0700	  3.2903	  0.0233
  0.0740	  3.7066	  0.0255
  0.0780	  4.1612	  0.0293
  0.0820	  4.5956	  0.0340
  0.0860	  5.0261	  0.0401
  0.0900	  5.3438	  0.0449
  0.0940	  5.7143	  0.0515
  0.0980	  5.9166	  0.0550
  0.1020	  6.2841	  0.0639
  0.1060	  6.5367	  0.0691
  0.1100	  6.7441	  0.0723
  0.1140	  7.0302	  0.0776
  0.1180	  7.1538	  0.0803
  0.1220	  7.4938	  0.0920
  0.1260	  7.7872	  0.0983
  0.1300	  8.0106	  0.1061
  0.1340	  8.4509	  0.1302
  0.1380	  8.3241	  0.1089
  0.1420	  8.4924	  0.1207
  0.1460	  8.4091	  0.1176
  0.1500	  8.9815	  0.1398
  0.1540	  8.8750	  0.1338
  0.1580	  8.8857	  0.1296
  0.1620	  9.4332	  0.1508
  0.1660	  9.6370	  0.1638
  0.1700	  9.2850	  0.1489
  0.1740	  9.2377	  0.1396
  0.1780	  9.6049	  0.1558
  0.1820	  9.5560	  0.1618
  0.1860	  9.6901	  0.1582
  0.1900	  9.3821	  0.1361
  0.1940	  9.3020	  0.1323
  0.1980	  9.2055	  0.1436
  0.2020	  9.5628	  0.1529
  0.2060	  9.5798	  0.1578
  0.2100	  9.2302	  0.1437
  0.2140	  9.1274	  0.1264
  0.2180	  9.2887	  0.1360
  0.2220	  8.8947	  0.1157
  0.2260	  9.0284	  0.1253
  0.2300	  8.8467	  0.1132
  0.2340	  9.0856	  0.1237
  0.2380	  8.6212	  0.1038
  0.2420	  8.6489	  0.1043
  0.2460	  8.5278	  0.1017
  0.2500	  8.3597	  0.0954
  0.2540	  8.3462	  0.0970
  0.2580	  8.1993	  0.0873
  0.2620	  7.9441	  0.0797
  0.2660	  7.7929	  0.0747
  0.2700	  7.9362	  0.0785
  0.2740	  7.7072	  0.0710
  0.2780	  7.6143	  0.0679
  0.2820	  7.5090	  0.0650
  0.2860	  7.3980	  0.0622
  0.2900	  7.1659	  0.0570
  0.2940	  7.1338	  0.0555
  0.2980	  7.1048	  0.0544
  0.3020	  6.9640	  0.0510
  0.3060	  6.8774	  0.0491
  0.3100	  6.7714	  0.0470
  0.3140	  6.6813	  0.0450
  0.3180	  6.6398	  0.0441
  0.3220	  6.5853	  0.0430
  0.3260	  6.4904	  0.0414
  0.3300	  6.4533	  0.0404
  0.3340	  6.4110	  0.0394
  0.3380	  6.4798	  0.0407
  0.3420	  6.3465	  0.0383
  0.3460	  6.3200	  0.0377
  0.3500	  6.3649	  0.0382
  0.3540	  6.2610	  0.0366
  0.3580	  6.3486	  0.0377
  0.3620	  6.2086	  0.0358
  0.3660	  6.2611	  0.0363
  0.3700	  6.2491	  0.0361
  0.3740	  6.2867	  0.0363
  0.3780	  6.3332	  0.0370
  0.3820	  6.3109	  0.0366
  0.3860	  6.4133	  0.0380
  0.3900	  6.4159	  0.0378
  0.3940	  6.3385	  0.0368
  0.3980	  6.3709	  0.0372
  0.4020	  6.3997	  0.0374
  0.4060	  6.4781	  0.0383
  0.4100	  6.4454	  0.0379
  0.4140	  6.4796	  0.0383
  0.4180	  6.5717	  0.0397
  0.4220	  6.5482	  0.0393
  0.4260	  6.6392	  0.0405
  0.4300	  6.6725	  0.0407
  0.4340	  6.6982	  0.0414
  0.4380	  6.7627	  0.0424
  0.4420	  6.7842	  0.0425
  0.4460	  6.8629	  0.0438
  0.4500	  6.7964	  0.0427
  0.4540	  6.9153	  0.0448
  0.4580	  6.8846	  0.0443
  0.4620	  6.9710	  0.0456
  0.4660	  7.0193	  0.0466
  0.4700	  7.1358	  0.0489
  0.4740	  7.1025	  0.0480
  0.4780	  7.0569	  0.0474
  0.4820	  7.1223	  0.0489
  0.4860	  7.2165	  0.0508
  0.4900	  7.1824	  0.0499
  0.4940	  7.1862	  0.0501
  0.4980	  7.2826	  0.0525
  0.5020	  7.2805	  0.0526
  0.5060	  7.3137	  0.0536
  0.5100	  7.2842	  0.0523
  0.5140	  7.4192	  0.0553
  0.5180	  7.3832	  0.0551
  0.5220	  7.4146	  0.0565
  0.5260	  7.4494	  0.0574
  0.5300	  7.4252	  0.0563
  0.5340	  7.4006	  0.0556
  0.5380	  7.3180	  0.0530
  0.5420	  7.3562	  0.0537
  0.5460	  7.3635	  0.0526
  0.5500	  7.0710	  0.0465
  0.5540	  7.0701	  0.0459
  0.5580	  6.8182	  0.0418
  0.5620	  6.6396	  0.0393
  0.5660	  6.4028	  0.0360
  0.5700	  6.2510	  0.0344
  0.5740	  6.1032	  0.0330
  0.5780	  5.9374	  0.0312
  0.5820	  5.7928	  0.0301
  0.5860	  5.6534	  0.0289
  0.5900	  5.5673	  0.0285
  0.5940	  5.4601	  0.0276
  0.5980	  5.3494	  0.0268
  0.6020	  5.2599	  0.0264
  0.6060	  5.1899	  0.0260
  0.6100	  5.1228	  0.0257
  0.6140	  5.0949	  0.0257
  0.6180	  5.0644	  0.0255
  0.6220	  5.0263	  0.0255
  0.6260	  5.0452	  0.0258
  0.6300	  4.9901	  0.0256
  0.6340	  5.0208	  0.0259
  0.6380	  5.0162	  0.0260
  0.6420	  5.0198	  0.0262
  0.6460	  5.0263	  0.0265
  0.6500	  5.0630	  0.0269
  0.6540	  5.0597	  0.0271
  0.6580	  5.1096	  0.0277
  0.6620	  5.0845	  0.0276
  0.6660	  5.1274	  0.0282
  0.6700	  5.1962	  0.0290
  0.6740	  5.2528	  0.0298
  0.6780	  5.2506	  0.0299
  0.6820	  5.2794	  0.0306
  0.6860	  5.3136	  0.0311
  0.6900	  5.3068	  0.0313
  0.6940	  5.3224	  0.0316
  0.6980	  5.3672	  0.0326
  0.7020	  5.3466	  0.0327
  0.7060	  5.4134	  0.0336
  0.7100	  5.4581	  0.0344
  0.7140	  5.4342	  0.0345
  0.7180	  5.5306	  0.0364
  0.7220	  5.5303	  0.0365
  0.7260	  5.5942	  0.0376
  0.7300	  5.6749	  0.0394
  0.7340	  5.6608	  0.0397
  0.7380	  5.6651	  0.0402
  0.7420	  5.7564	  0.0419
  0.7460	  5.8151	  0.0432
  0.7500	  5.9350	  0.0459
  0.7540	  5.8977	  0.0457
  0.7580	  5.9464	  0.0468
  0.7620	  6.0998	  0.0503
  0.7660	  6.0649	  0.0501
  0.7700	  6.1031	  0.0519
  0.7740	  6.1717	  0.0536
  0.7780	  6.2164	  0.0549
  0.7820	  6.3513	  0.0588
  0.7860	  6.4164	  0.0612
  0.7900	  6.4964	  0.0635
  0.7940	  6.3808	  0.0615
  0.7980	  0.0000	  0.0000
