# distance (nm)	f (kT)	df (kT)
  0.0020	  5.7080	  0.0951
  0.0060	  3.5763	  0.0345
  0.0100	  2.6180	  0.0229
  0.0140	  1.9204	  0.0178
  0.0180	  1.4164	  0.0153
  0.0220	  1.0413	  0.0139
  0.0260	  0.7279	  0.0130
  0.0300	  0.4904	  0.0125
  0.0340	  0.2941	  0.0122
  0.0380	  0.1700	  0.0121
  0.0420	  0.0783	  0.0122
  0.0460	  0.0175	  0.0123
  0.0500	  0.0000	  0.0000
  0.0540	  0.0130	  0.0130
  0.0580	  0.0924	  0.0136
  0.0620	  0.1865	  0.0144
  0.0660	  0.3337	  0.0154
  0.0700	  0.5066	  0.0166
  0.0740	  0.6826	  0.0178
  0.0780	  0.9333	  0.0196
  0.0820	  1.2063	  0.0218
  0.0860	  1.4896	  0.0243
  0.0900	  1.7761	  0.0273
  0.0940	  2.0557	  0.0308
  0.0980	  2.2874	  0.0342
  0.1020	  2.6410	  0.0405
  0.1060	  2.8603	  0.0452
  0.1100	  3.0060	  0.0495
  0.1140	  3.1613	  0.0537
  0.1180	  3.2602	  0.0567
  0.1220	  3.5181	  0.0639
  0.1260	  3.6273	  0.0672
  0.1300	  3.8000	  0.0736
  0.1340	  4.0824	  0.0832
  0.1380	  3.9227	  0.0772
  0.1420	  4.1228	  0.0847
  0.1460	  4.1134	  0.0835
  0.1500	  4.4220	  0.0956
  0.1540	  4.3653	  0.0935
  0.1580	  4.2665	  0.0876
  0.1620	  4.7618	  0.1113
  0.1660	  4.6927	  0.1046
  0.1700	  4.7035	  0.1055
  0.1740	  4.6052	  0.1005
  0.1780	  4.8073	  0.1096
  0.1820	  4.8547	  0.1106
  0.1860	  4.8853	  0.1107
  0.1900	  4.7381	  0.1034
  0.1940	  4.7389	  0.1023
  0.1980	  4.7821	  0.1028
  0.2020	  4.9542	  0.1099
  0.2060	  4.9051	  0.1050
  0.2100	  4.8477	  0.1017
  0.2140	  4.6568	  0.0910
  0.2180	  4.8692	  0.0999
  0.2220	  4.6274	  0.0872
  0.2260	  4.7632	  0.0913
  0.2300	  4.6796	  0.0868
  0.2340	  4.7338	  0.0869
  0.2380	  4.5609	  0.0789
  0.2420	  4.6259	  0.0791
  0.2460	  4.5257	  0.0739
  0.2500	  4.5049	  0.0715
  0.2540	  4.6203	  0.0742
  0.2580	  4.5207	  0.0695
  0.2620	  4.3651	  0.0628
  0.2660	  4.3002	  0.0595
  0.2700	  4.4305	  0.0619
  0.2740	  4.3170	  0.0569
  0.2780	  4.3378	  0.0561
  0.2820	  4.3183	  0.0541
  0.2860	  4.2623	  0.0514
  0.2900	  4.1766	  0.0476
  0.2940	  4.2297	  0.0473
  0.2980	  4.2121	  0.0460
  0.3020	  4.1842	  0.0438
  0.3060	  4.2132	  0.0430
  0.3100	  4.1569	  0.0409
  0.3140	  4.1075	  0.0388
  0.3180	  4.1613	  0.0388
  0.3220	  4.1990	  0.0381
  0.3260	  4.2175	  0.0371
  0.3300	  4.2078	  0.0360
  0.3340	  4.2099	  0.0353
  0.3380	  4.3612	  0.0365
  0.3420	  4.3169	  0.0346
  0.3460	  4.3250	  0.0339
  0.3500	  4.4295	  0.0346
  0.3540	  4.4148	  0.0332
  0.3580	  4.5254	  0.0343
  0.3620	  4.5035	  0.0325
  0.3660	  4.5773	  0.0327
  0.3700	  4.6829	  0.0330
  0.3740	  4.7159	  0.0330
  0.3780	  4.8346	  0.0338
  0.3820	  4.8818	  0.0336
  0.3860	  5.0413	  0.0348
  0.3900	  5.0848	  0.0347
  0.3940	  5.1124	  0.0340
  0.3980	  5.1794	  0.0342
  0.4020	  5.2783	  0.0345
  0.4060	  5.3620	  0.0351
  0.4100	  5.4199	  0.0349
  0.4140	  5.5275	  0.0356
  0.4180	  5.6646	  0.0365
  0.4220	  5.7263	  0.0364
  0.4260	  5.8394	  0.0372
  0.4300	  5.9057	  0.0374
  0.4340	  6.0582	  0.0385
  0.4380	  6.1780	  0.0392
  0.4420	  6.2457	  0.0393
  0.4460	  6.3291	  0.0400
  0.4500	  6.4032	  0.0396
  0.4540	  6.5888	  0.0416
  0.4580	  6.6414	  0.0412
  0.4620	  6.7469	  0.0422
  0.4660	  6.8948	  0.0430
  0.4700	  7.0456	  0.0451
  0.4740	  7.0389	  0.0436
  0.4780	  7.1580	  0.0438
  0.4820	  7.3055	  0.0450
  0.4860	  7.4359	  0.0465
  0.4900	  7.4785	  0.0457
  0.4940	  7.5844	  0.0460
  0.4980	  7.7102	  0.0475
  0.5020	  7.8074	  0.0474
  0.5060	  7.9619	  0.0487
  0.5100	  7.9692	  0.0472
  0.5140	  8.1486	  0.0497
  0.5180	  8.1651	  0.0478
  0.5220	  8.3084	  0.0489
  0.5260	  8.3908	  0.0485
  0.5300	  8.3390	  0.0458
  0.5340	  8.3990	  0.0455
  0.5380	  8.3158	  0.0425
  0.5420	  8.3461	  0.0418
  0.5460	  8.3070	  0.0403
  0.5500	  8.1887	  0.0363
  0.5540	  8.2457	  0.0359
  0.5580	  8.1450	  0.0328
  0.5620	  8.1328	  0.0311
  0.5660	  8.0464	  0.0288
  0.5700	  8.0340	  0.0274
  0.5740	  8.1098	  0.0268
  0.5780	  8.0785	  0.0255
  0.5820	  8.1168	  0.0247
  0.5860	  8.1553	  0.0239
  0.5900	  8.2456	  0.0236
  0.5940	  8.3000	  0.0230
  0.5980	  8.3339	  0.0224
  0.6020	  8.4265	  0.0221
  0.6060	  8.5284	  0.0219
  0.6100	  8.6271	  0.0217
  0.6140	  8.7437	  0.0217
  0.6180	  8.8345	  0.0215
  0.6220	  9.0008	  0.0217
  0.6260	  9.1418	  0.0219
  0.6300	  9.2650	  0.0218
  0.6340	  9.4165	  0.0221
  0.6380	  9.5568	  0.0222
  0.6420	  9.7109	  0.0225
  0.6460	  9.8655	  0.0228
  0.6500	 10.0326	  0.0231
  0.6540	 10.1699	  0.0233
  0.6580	 10.3946	  0.0240
  0.6620	 10.4901	  0.0239
  0.6660	 10.6906	  0.0244
  0.6700	 10.8698	  0.0250
  0.6740	 11.0865	  0.0258
  0.6780	 11.2051	  0.0258
  0.6820	 11.4211	  0.0265
  0.6860	 11.5693	  0.0269
  0.6900	 11.7325	  0.0271
  0.6940	 11.8767	  0.0275
  0.6980	 12.0977	  0.0282
  0.7020	 12.2455	  0.0284
  0.7060	 12.4453	  0.0292
  0.7100	 12.6485	  0.0302
  0.7140	 12.7908	  0.0300
  0.7180	 13.0801	  0.0318
  0.7220	 13.2167	  0.0317
  0.7260	 13.4190	  0.0328
  0.7300	 13.6801	  0.0345
  0.7340	 13.8411	  0.0347
  0.7380	 14.0340	  0.0354
  0.7420	 14.2836	  0.0369
  0.7460	 14.4798	  0.0379
  0.7500	 14.7339	  0.0402
  0.7540	 14.8967	  0.0403
  0.7580	 15.0744	  0.0410
  0.7620	 15.3593	  0.0442
  0.7660	 15.5085	  0.0443
  0.7700	 15.7692	  0.0463
  0.7740	 15.9347	  0.0472
  0.7780	 16.1375	  0.0479
  0.7820	 16.4440	  0.0524
  0.7860	 16.6696	  0.0543
  0.7900	 16.8473	  0.0555
  0.7940	 17.0187	  0.0547
  0.7980	 15.5700	  0.0232
