# distance (nm)	f (kT)	df (kT)
  0.0020	  6.2258	  0.0960
  0.0060	  4.0923	  0.0357
  0.0100	  3.1250	  0.0243
  0.0140	  2.4134	  0.0195
  0.0180	  1.8888	  0.0172
  0.0220	  1.4891	  0.0160
  0.0260	  1.1469	  0.0152
  0.0300	  0.8736	  0.0147
  0.0340	  0.6343	  0.0145
  0.0380	  0.4611	  0.0144
  0.0420	  0.3128	  0.0144
  0.0460	  0.1886	  0.0145
  0.0500	  0.0946	  0.0148
  0.0540	  0.0243	  0.0151
  0.0580	  0.0099	  0.0157
  0.0620	  0.0000	  0.0000
  0.0660	  0.0380	  0.0174
  0.0700	  0.0803	  0.0186
  0.0740	  0.1273	  0.0199
  0.0780	  0.2409	  0.0219
  0.0820	  0.3697	  0.0242
  0.0860	  0.5066	  0.0269
  0.0900	  0.6863	  0.0302
  0.0940	  0.8703	  0.0339
  0.0980	  1.0274	  0.0375
  0.1020	  1.2796	  0.0440
  0.1060	  1.4129	  0.0485
  0.1100	  1.6826	  0.0537
  0.1140	  1.8359	  0.0585
  0.1180	  2.0472	  0.0625
  0.1220	  2.2040	  0.0705
  0.1260	  2.3231	  0.0728
  0.1300	  2.5903	  0.0802
  0.1340	  2.7703	  0.0892
  0.1380	  2.7550	  0.0822
  0.1420	  2.8244	  0.0902
  0.1460	  2.8061	  0.0886
  0.1500	  3.0431	  0.1007
  0.1540	  3.1194	  0.0983
  0.1580	  2.9365	  0.0913
  0.1620	  3.4983	  0.1148
  0.1660	  3.1871	  0.1083
  0.1700	  3.3078	  0.1101
  0.1740	  3.2767	  0.1058
  0.1780	  3.4938	  0.1142
  0.1820	  3.4932	  0.1153
  0.1860	  3.4927	  0.1151
  0.1900	  3.4550	  0.1106
  0.1940	  3.4963	  0.1080
  0.1980	  3.5040	  0.1102
  0.2020	  3.6547	  0.1151
  0.2060	  3.5066	  0.1103
  0.2100	  3.6421	  0.1082
  0.2140	  3.4087	  0.0970
  0.2180	  3.5911	  0.1081
  0.2220	  3.4107	  0.0937
  0.2260	  3.5013	  0.0993
  0.2300	  3.5110	  0.0964
  0.2340	  3.4697	  0.0937
  0.2380	  3.3988	  0.0876
  0.2420	  3.4684	  0.0883
  0.2460	  3.3449	  0.0823
  0.2500	  3.3491	  0.0813
  0.2540	  3.5049	  0.0841
  0.2580	  3.5334	  0.0796
  0.2620	  3.3512	  0.0730
  0.2660	  3.3748	  0.0679
  0.2700	  3.4375	  0.0723
  0.2740	  3.3188	  0.0679
  0.2780	  3.3912	  0.0676
  0.2820	  3.4782	  0.0650
  0.2860	  3.3947	  0.0619
  0.2900	  3.3168	  0.0589
  0.2940	  3.4451	  0.0587
  0.2980	  3.4428	  0.0564
  0.3020	  3.4228	  0.0561
  0.3060	  3.4374	  0.0570
  0.3100	  3.3481	  0.0538
  0.3140	  3.3088	  0.0506
  0.3180	  3.4236	  0.0503
  0.3220	  3.4402	  0.0519
  0.3260	  3.5166	  0.0507
  0.3300	  3.4993	  0.0485
  0.3340	  3.5448	  0.0462
  0.3380	  3.6955	  0.0489
  0.3420	  3.6769	  0.0465
  0.3460	  3.6586	  0.0460
  0.3500	  3.8084	  0.0457
  0.3540	  3.7566	  0.0460
  0.3580	  3.8778	  0.0466
  0.3620	  3.8585	  0.0448
  0.3660	  3.9392	  0.0451
  0.3700	  4.0434	  0.0471
  0.3740	  4.0319	  0.0470
  0.3780	  4.1603	  0.0473
  0.3820	  4.1989	  0.0476
  0.3860	  4.3815	  0.0486
  0.3900	  4.3843	  0.0489
  0.3940	  4.4484	  0.0479
  0.3980	  4.5316	  0.0469
  0.4020	  4.5841	  0.0489
  0.4060	  4.5977	  0.0504
  0.4100	  4.7283	  0.0482
  0.4140	  4.8502	  0.0481
  0.4180	  4.9512	  0.0508
  0.4220	  5.0133	  0.0517
  0.4260	  5.0840	  0.0526
  0.4300	  5.1199	  0.0529
  0.4340	  5.3148	  0.0543
  0.4380	  5.4225	  0.0556
  0.4420	  5.4704	  0.0565
  0.4460	  5.5162	  0.0552
  0.4500	  5.5997	  0.0570
  0.4540	  5.8387	  0.0572
  0.4580	  5.8423	  0.0584
  0.4620	  5.9630	  0.0578
  0.4660	  6.0751	  0.0624
  0.4700	  6.2774	  0.0603
  0.4740	  6.1557	  0.0607
  0.4780	  6.3418	  0.0605
  0.4820	  6.4653	  0.0634
  0.4860	  6.4587	  0.0693
  0.4900	  6.5294	  0.0663
  0.4940	  6.6536	  0.0677
  0.4980	  6.7840	  0.0657
  0.5020	  6.7577	  0.0690
  0.5060	  7.0053	  0.0690
  0.5100	  6.8882	  0.0690
  0.5140	  7.0220	  0.0712
  0.5180	  6.8580	  0.0675
  0.5220	  6.9841	  0.0701
  0.5260	  6.9444	  0.0677
  0.5300	  6.9084	  0.0608
  0.5340	  6.9792	  0.0603
  0.5380	  6.8402	  0.0557
  0.5420	  6.8749	  0.0528
  0.5460	  6.8917	  0.0491
  0.5500	  6.7337	  0.0453
  0.5540	  6.8666	  0.0444
  0.5580	  6.8210	  0.0405
  0.5620	  6.8279	  0.0392
  0.5660	  6.8221	  0.0361
  0.5700	  6.8098	  0.0343
  0.5740	  6.9672	  0.0344
  0.5780	  6.9528	  0.0325
  0.5820	  7.0269	  0.0318
  0.5860	  7.0940	  0.0311
  0.5900	  7.1801	  0.0311
  0.5940	  7.2759	  0.0304
  0.5980	  7.3624	  0.0293
  0.6020	  7.4904	  0.0291
  0.6060	  7.5942	  0.0293
  0.6100	  7.7322	  0.0289
  0.6140	  7.8463	  0.0290
  0.6180	  7.9324	  0.0288
  0.6220	  8.0985	  0.0297
  0.6260	  8.2370	  0.0299
  0.6300	  8.3954	  0.0297
  0.6340	  8.5332	  0.0300
  0.6380	  8.6280	  0.0308
  0.6420	  8.8417	  0.0306
  0.6460	  9.0076	  0.0305
  0.6500	  9.1502	  0.0314
  0.6540	  9.2373	  0.0318
  0.6580	  9.4801	  0.0333
  0.6620	  9.5689	  0.0328
  0.6660	  9.7731	  0.0337
  0.6700	  9.9133	  0.0347
  0.6740	 10.1598	  0.0355
  0.6780	 10.2258	  0.0362
  0.6820	 10.5089	  0.0364
  0.6860	 10.6246	  0.0369
  0.6900	 10.7937	  0.0372
  0.6940	 10.9903	  0.0367
  0.6980	 11.1721	  0.0388
  0.7020	 11.3074	  0.0387
  0.7060	 11.5235	  0.0401
  0.7100	 11.7437	  0.0410
  0.7140	 11.8781	  0.0409
  0.7180	 12.0930	  0.0453
  0.7220	 12.2688	  0.0441
  0.7260	 12.4634	  0.0456
  0.7300	 12.7758	  0.0464
  0.7340	 12.8800	  0.0480
  0.7380	 13.0380	  0.0505
  0.7420	 13.3232	  0.0535
  0.7460	 13.4915	  0.0544
  0.7500	 13.7083	  0.0571
  0.7540	 13.9508	  0.0568
  0.7580	 14.1482	  0.0563
  0.7620	 14.3439	  0.0623
  0.7660	 14.5678	  0.0603
  0.7700	 14.8510	  0.0625
  0.7740	 14.9073	  0.0669
  0.7780	 15.0547	  0.0686
  0.7820	 15.4332	  0.0734
  0.7860	 15.6590	  0.0747
  0.7900	 15.8754	  0.0735
  0.7940	 15.9994	  0.0777
  0.7980	 14.4585	  0.0304
