# distance (nm)	f (kT)	df (kT)
  0.0020	  5.5488	  0.0949
  0.0060	  3.4181	  0.0343
  0.0100	  2.4634	  0.0227
  0.0140	  1.7716	  0.0175
  0.0180	  1.2758	  0.0150
  0.0220	  0.9104	  0.0136
  0.0260	  0.6090	  0.0127
  0.0300	  0.3860	  0.0122
  0.0340	  0.2070	  0.0118
  0.0380	  0.1031	  0.0118
  0.0420	  0.0347	  0.0118
  0.0460	  0.0000	  0.0000
  0.0500	  0.0141	  0.0122
  0.0540	  0.0611	  0.0126
  0.0580	  0.1794	  0.0133
  0.0620	  0.3158	  0.0141
  0.0660	  0.5063	  0.0151
  0.0700	  0.7318	  0.0163
  0.0740	  0.9566	  0.0176
  0.0780	  1.2548	  0.0195
  0.0820	  1.5759	  0.0219
  0.0860	  1.9005	  0.0248
  0.0900	  2.2006	  0.0284
  0.0940	  2.4911	  0.0326
  0.0980	  2.7212	  0.0366
  0.1020	  3.0655	  0.0438
  0.1060	  3.2848	  0.0488
  0.1100	  3.4187	  0.0523
  0.1140	  3.5669	  0.0564
  0.1180	  3.6650	  0.0588
  0.1220	  3.9289	  0.0667
  0.1260	  4.0692	  0.0704
  0.1300	  4.2372	  0.0762
  0.1340	  4.5626	  0.0870
  0.1380	  4.3858	  0.0800
  0.1420	  4.5968	  0.0881
  0.1460	  4.5938	  0.0871
  0.1500	  4.9358	  0.1009
  0.1540	  4.8547	  0.0972
  0.1580	  4.7805	  0.0918
  0.1620	  5.2920	  0.1152
  0.1660	  5.2650	  0.1102
  0.1700	  5.2302	  0.1110
  0.1740	  5.1115	  0.1046
  0.1780	  5.3336	  0.1139
  0.1820	  5.3970	  0.1151
  0.1860	  5.4224	  0.1163
  0.1900	  5.2301	  0.1068
  0.1940	  5.2299	  0.1056
  0.1980	  5.2699	  0.1061
  0.2020	  5.4771	  0.1137
  0.2060	  5.4350	  0.1096
  0.2100	  5.3232	  0.1050
  0.2140	  5.1473	  0.0940
  0.2180	  5.3502	  0.1031
  0.2220	  5.0941	  0.0902
  0.2260	  5.2309	  0.0947
  0.2300	  5.1101	  0.0892
  0.2340	  5.2183	  0.0899
  0.2380	  4.9966	  0.0808
  0.2420	  5.0550	  0.0815
  0.2460	  4.9601	  0.0762
  0.2500	  4.9178	  0.0736
  0.2540	  5.0225	  0.0762
  0.2580	  4.8858	  0.0707
  0.2620	  4.7351	  0.0639
  0.2660	  4.6516	  0.0601
  0.2700	  4.7892	  0.0627
  0.2740	  4.6635	  0.0576
  0.2780	  4.6668	  0.0566
  0.2820	  4.6212	  0.0542
  0.2860	  4.5712	  0.0513
  0.2900	  4.4708	  0.0475
  0.2940	  4.5023	  0.0471
  0.2980	  4.4884	  0.0456
  0.3020	  4.4413	  0.0434
  0.3060	  4.4596	  0.0425
  0.3100	  4.4135	  0.0406
  0.3140	  4.3636	  0.0384
  0.3180	  4.4055	  0.0382
  0.3220	  4.4297	  0.0375
  0.3260	  4.4370	  0.0365
  0.3300	  4.4292	  0.0352
  0.3340	  4.4318	  0.0345
  0.3380	  4.5746	  0.0356
  0.3420	  4.5222	  0.0339
  0.3460	  4.5361	  0.0331
  0.3500	  4.6346	  0.0336
  0.3540	  4.6153	  0.0323
  0.3580	  4.7323	  0.0334
  0.3620	  4.7022	  0.0316
  0.3660	  4.7761	  0.0317
  0.3700	  4.8710	  0.0320
  0.3740	  4.9165	  0.0320
  0.3780	  5.0390	  0.0327
  0.3820	  5.0840	  0.0325
  0.3860	  5.2415	  0.0338
  0.3900	  5.2933	  0.0336
  0.3940	  5.3122	  0.0330
  0.3980	  5.3840	  0.0330
  0.4020	  5.4828	  0.0334
  0.4060	  5.5827	  0.0341
  0.4100	  5.6345	  0.0338
  0.4140	  5.7441	  0.0344
  0.4180	  5.8845	  0.0355
  0.4220	  5.9407	  0.0352
  0.4260	  6.0631	  0.0363
  0.4300	  6.1387	  0.0365
  0.4340	  6.2836	  0.0374
  0.4380	  6.4041	  0.0380
  0.4420	  6.4723	  0.0382
  0.4460	  6.5799	  0.0390
  0.4500	  6.6378	  0.0385
  0.4540	  6.8233	  0.0403
  0.4580	  6.8821	  0.0401
  0.4620	  6.9944	  0.0411
  0.4660	  7.1359	  0.0419
  0.4700	  7.2962	  0.0438
  0.4740	  7.3083	  0.0425
  0.4780	  7.4094	  0.0427
  0.4820	  7.5588	  0.0439
  0.4860	  7.7027	  0.0456
  0.4900	  7.7458	  0.0447
  0.4940	  7.8478	  0.0449
  0.4980	  7.9950	  0.0462
  0.5020	  8.0966	  0.0463
  0.5060	  8.2409	  0.0477
  0.5100	  8.2615	  0.0463
  0.5140	  8.4566	  0.0489
  0.5180	  8.4992	  0.0476
  0.5220	  8.6433	  0.0485
  0.5260	  8.7526	  0.0482
  0.5300	  8.7364	  0.0457
  0.5340	  8.7950	  0.0454
  0.5380	  8.7249	  0.0426
  0.5420	  8.7882	  0.0420
  0.5460	  8.7689	  0.0405
  0.5500	  8.6329	  0.0367
  0.5540	  8.6868	  0.0361
  0.5580	  8.5763	  0.0329
  0.5620	  8.5504	  0.0311
  0.5660	  8.4471	  0.0288
  0.5700	  8.4361	  0.0273
  0.5740	  8.4804	  0.0265
  0.5780	  8.4472	  0.0252
  0.5820	  8.4710	  0.0243
  0.5860	  8.4965	  0.0235
  0.5900	  8.5776	  0.0232
  0.5940	  8.6225	  0.0226
  0.5980	  8.6471	  0.0219
  0.6020	  8.7269	  0.0216
  0.6060	  8.8211	  0.0214
  0.6100	  8.9118	  0.0211
  0.6140	  9.0256	  0.0211
  0.6180	  9.1175	  0.0209
  0.6220	  9.2719	  0.0211
  0.6260	  9.4161	  0.0213
  0.6300	  9.5324	  0.0212
  0.6340	  9.6893	  0.0215
  0.6380	  9.8308	  0.0216
  0.6420	  9.9790	  0.0218
  0.6460	 10.1372	  0.0221
  0.6500	 10.3062	  0.0225
  0.6540	 10.4523	  0.0226
  0.6580	 10.6680	  0.0233
  0.6620	 10.7700	  0.0232
  0.6660	 10.9686	  0.0237
  0.6700	 11.1557	  0.0243
  0.6740	 11.3695	  0.0251
  0.6780	 11.4938	  0.0252
  0.6820	 11.7023	  0.0258
  0.6860	 11.8579	  0.0262
  0.6900	 12.0212	  0.0264
  0.6940	 12.1652	  0.0267
  0.6980	 12.3837	  0.0274
  0.7020	 12.5362	  0.0277
  0.7060	 12.7343	  0.0284
  0.7100	 12.9386	  0.0293
  0.7140	 13.0805	  0.0292
  0.7180	 13.3686	  0.0310
  0.7220	 13.5063	  0.0310
  0.7260	 13.7134	  0.0320
  0.7300	 13.9720	  0.0335
  0.7340	 14.1354	  0.0339
  0.7380	 14.3275	  0.0345
  0.7420	 14.5663	  0.0359
  0.7460	 14.7697	  0.0371
  0.7500	 15.0365	  0.0393
  0.7540	 15.1837	  0.0392
  0.7580	 15.3684	  0.0400
  0.7620	 15.6639	  0.0430
  0.7660	 15.8094	  0.0431
  0.7700	 16.0675	  0.0450
  0.7740	 16.2460	  0.0461
  0.7780	 16.4521	  0.0468
  0.7820	 16.7527	  0.0510
  0.7860	 16.9849	  0.0529
  0.7900	 17.1708	  0.0539
  0.7940	 17.3228	  0.0533
  0.7980	 15.9048	  0.0228
