# distance (nm)	f (kT)	df (kT)
  0.0020	 12.1676	  0.0973
  0.0060	  9.9494	  0.0398
  0.0100	  8.8961	  0.0302
  0.0140	  8.0994	  0.0265
  0.0180	  7.4924	  0.0249
  0.0220	  7.0129	  0.0240
  0.0260	  6.5931	  0.0235
  0.0300	  6.2464	  0.0232
  0.0340	  5.9392	  0.0231
  0.0380	  5.7009	  0.0230
  0.0420	  5.4926	  0.0230
  0.0460	  5.3124	  0.0231
  0.0500	  5.1706	  0.0232
  0.0540	  5.0567	  0.0234
  0.0580	  5.0055	  0.0238
  0.0620	  4.9651	  0.0242
  0.0660	  4.9762	  0.0249
  0.0700	  5.0051	  0.0256
  0.0740	  5.0396	  0.0265
  0.0780	  5.1452	  0.0277
  0.0820	  5.2724	  0.0293
  0.0860	  5.4119	  0.0312
  0.0900	  5.5740	  0.0334
  0.0940	  5.7347	  0.0361
  0.0980	  5.8568	  0.0386
  0.1020	  6.1050	  0.0434
  0.1060	  6.2185	  0.0469
  0.1100	  6.3025	  0.0511
  0.1140	  6.3718	  0.0549
  0.1180	  6.3986	  0.0585
  0.1220	  6.5443	  0.0648
  0.1260	  6.5380	  0.0679
  0.1300	  6.6322	  0.0746
  0.1340	  6.7761	  0.0836
  0.1380	  6.5468	  0.0785
  0.1420	  6.6354	  0.0847
  0.1460	  6.5180	  0.0834
  0.1500	  6.6985	  0.0949
  0.1540	  6.5750	  0.0937
  0.1580	  6.3520	  0.0874
  0.1620	  6.7594	  0.1114
  0.1660	  6.5303	  0.1035
  0.1700	  6.4851	  0.1042
  0.1740	  6.3188	  0.1000
  0.1780	  6.4093	  0.1093
  0.1820	  6.3525	  0.1102
  0.1860	  6.2760	  0.1094
  0.1900	  6.0857	  0.1034
  0.1940	  5.9911	  0.1024
  0.1980	  5.9333	  0.1028
  0.2020	  5.9848	  0.1100
  0.2060	  5.8222	  0.1042
  0.2100	  5.7196	  0.1022
  0.2140	  5.4232	  0.0919
  0.2180	  5.5456	  0.1002
  0.2220	  5.2177	  0.0879
  0.2260	  5.2491	  0.0917
  0.2300	  5.1087	  0.0878
  0.2340	  5.0201	  0.0879
  0.2380	  4.7943	  0.0805
  0.2420	  4.7635	  0.0810
  0.2460	  4.5607	  0.0757
  0.2500	  4.4598	  0.0736
  0.2540	  4.4860	  0.0762
  0.2580	  4.3376	  0.0721
  0.2620	  4.0755	  0.0658
  0.2660	  3.9339	  0.0629
  0.2700	  3.9565	  0.0651
  0.2740	  3.7556	  0.0603
  0.2780	  3.6963	  0.0596
  0.2820	  3.6105	  0.0579
  0.2860	  3.4486	  0.0554
  0.2900	  3.2767	  0.0519
  0.2940	  3.2567	  0.0518
  0.2980	  3.1431	  0.0507
  0.3020	  3.0320	  0.0485
  0.3060	  2.9718	  0.0478
  0.3100	  2.8054	  0.0458
  0.3140	  2.6574	  0.0439
  0.3180	  2.6313	  0.0440
  0.3220	  2.5844	  0.0432
  0.3260	  2.5202	  0.0425
  0.3300	  2.4070	  0.0415
  0.3340	  2.3204	  0.0409
  0.3380	  2.3782	  0.0421
  0.3420	  2.2453	  0.0402
  0.3460	  2.1519	  0.0397
  0.3500	  2.1691	  0.0403
  0.3540	  2.0573	  0.0389
  0.3580	  2.0712	  0.0399
  0.3620	  1.9551	  0.0384
  0.3660	  1.9328	  0.0387
  0.3700	  1.9505	  0.0389
  0.3740	  1.8756	  0.0387
  0.3780	  1.8954	  0.0397
  0.3820	  1.8478	  0.0393
  0.3860	  1.9101	  0.0406
  0.3900	  1.8505	  0.0405
  0.3940	  1.7933	  0.0397
  0.3980	  1.7619	  0.0399
  0.4020	  1.7595	  0.0401
  0.4060	  1.7296	  0.0407
  0.4100	  1.7021	  0.0405
  0.4140	  1.7121	  0.0412
  0.4180	  1.7462	  0.0422
  0.4220	  1.7195	  0.0420
  0.4260	  1.7240	  0.0426
  0.4300	  1.6869	  0.0427
  0.4340	  1.7509	  0.0440
  0.4380	  1.7701	  0.0448
  0.4420	  1.7441	  0.0445
  0.4460	  1.7083	  0.0454
  0.4500	  1.7006	  0.0448
  0.4540	  1.7934	  0.0471
  0.4580	  1.7427	  0.0465
  0.4620	  1.7468	  0.0474
  0.4660	  1.8017	  0.0483
  0.4700	  1.8530	  0.0503
  0.4740	  1.7254	  0.0487
  0.4780	  1.7661	  0.0489
  0.4820	  1.8147	  0.0502
  0.4860	  1.8304	  0.0513
  0.4900	  1.7764	  0.0505
  0.4940	  1.7940	  0.0509
  0.4980	  1.8022	  0.0526
  0.5020	  1.7897	  0.0524
  0.5060	  1.8629	  0.0537
  0.5100	  1.7544	  0.0520
  0.5140	  1.8190	  0.0541
  0.5180	  1.6956	  0.0520
  0.5220	  1.7414	  0.0534
  0.5260	  1.6917	  0.0530
  0.5300	  1.5118	  0.0503
  0.5340	  1.4816	  0.0498
  0.5380	  1.2953	  0.0464
  0.5420	  1.2064	  0.0456
  0.5460	  1.0719	  0.0439
  0.5500	  0.8636	  0.0399
  0.5540	  0.8362	  0.0396
  0.5580	  0.6517	  0.0368
  0.5620	  0.5568	  0.0354
  0.5660	  0.3952	  0.0332
  0.5700	  0.2837	  0.0320
  0.5740	  0.2949	  0.0317
  0.5780	  0.1728	  0.0305
  0.5820	  0.1279	  0.0298
  0.5860	  0.0812	  0.0291
  0.5900	  0.0803	  0.0288
  0.5940	  0.0490	  0.0284
  0.5980	  0.0000	  0.0000
  0.6020	  0.0086	  0.0276
  0.6060	  0.0200	  0.0275
  0.6100	  0.0323	  0.0273
  0.6140	  0.0531	  0.0273
  0.6180	  0.0471	  0.0271
  0.6220	  0.1240	  0.0273
  0.6260	  0.1666	  0.0275
  0.6300	  0.2028	  0.0275
  0.6340	  0.2517	  0.0277
  0.6380	  0.2915	  0.0278
  0.6420	  0.3584	  0.0280
  0.6460	  0.4150	  0.0283
  0.6500	  0.4824	  0.0286
  0.6540	  0.5111	  0.0287
  0.6580	  0.6492	  0.0294
  0.6620	  0.6444	  0.0292
  0.6660	  0.7493	  0.0298
  0.6700	  0.8237	  0.0303
  0.6740	  0.9479	  0.0310
  0.6780	  0.9640	  0.0310
  0.6820	  1.0931	  0.0317
  0.6860	  1.1385	  0.0319
  0.6900	  1.2049	  0.0322
  0.6940	  1.2614	  0.0325
  0.6980	  1.3822	  0.0332
  0.7020	  1.4273	  0.0334
  0.7060	  1.5363	  0.0342
  0.7100	  1.6467	  0.0350
  0.7140	  1.6892	  0.0350
  0.7180	  1.8751	  0.0366
  0.7220	  1.9168	  0.0366
  0.7260	  2.0206	  0.0377
  0.7300	  2.1896	  0.0394
  0.7340	  2.2479	  0.0396
  0.7380	  2.3437	  0.0403
  0.7420	  2.5104	  0.0418
  0.7460	  2.6001	  0.0426
  0.7500	  2.7451	  0.0450
  0.7540	  2.8321	  0.0450
  0.7580	  2.9083	  0.0459
  0.7620	  3.0845	  0.0488
  0.7660	  3.1464	  0.0490
  0.7700	  3.3108	  0.0513
  0.7740	  3.3643	  0.0519
  0.7780	  3.4577	  0.0528
  0.7820	  3.6875	  0.0569
  0.7860	  3.8086	  0.0592
  0.7900	  3.8877	  0.0605
  0.7940	  3.9706	  0.0598
  0.7980	  1.7733	  0.0253
