# distance (nm)	f (kT)	df (kT)
  0.0020	  4.7206	  0.0946
  0.0060	  2.6236	  0.0342
  0.0100	  1.7186	  0.0226
  0.0140	  1.0877	  0.0174
  0.0180	  0.6651	  0.0148
  0.0220	  0.3813	  0.0134
  0.0260	  0.1735	  0.0125
  0.0300	  0.0584	  0.0120
  0.0340	  0.0000	  0.0000
  0.0380	  0.0329	  0.0116
  0.0420	  0.1192	  0.0117
  0.0460	  0.2525	  0.0119
  0.0500	  0.4620	  0.0122
  0.0540	  0.7155	  0.0127
  0.0580	  1.0639	  0.0135
  0.0620	  1.4391	  0.0146
  0.0660	  1.8545	  0.0162
  0.0700	  2.3382	  0.0187
  0.0740	  2.7696	  0.0217
  0.0780	  3.2016	  0.0263
  0.0820	  3.6597	  0.0316
  0.0860	  4.0589	  0.0374
  0.0900	  4.3645	  0.0418
  0.0940	  4.6949	  0.0472
  0.0980	  4.9431	  0.0512
  0.1020	  5.3178	  0.0588
  0.1060	  5.6070	  0.0649
  0.1100	  5.8984	  0.0687
  0.1140	  6.1075	  0.0731
  0.1180	  6.3140	  0.0764
  0.1220	  6.5989	  0.0859
  0.1260	  6.9446	  0.0930
  0.1300	  7.2123	  0.0992
  0.1340	  7.6864	  0.1226
  0.1380	  7.5468	  0.1074
  0.1420	  7.8525	  0.1169
  0.1460	  7.8869	  0.1158
  0.1500	  8.3742	  0.1375
  0.1540	  8.2950	  0.1264
  0.1580	  8.3123	  0.1247
  0.1620	  9.0278	  0.1631
  0.1660	  9.0801	  0.1738
  0.1700	  8.9070	  0.1498
  0.1740	  8.7834	  0.1403
  0.1780	  9.1298	  0.1573
  0.1820	  9.3023	  0.1614
  0.1860	  9.2709	  0.1607
  0.1900	  8.9902	  0.1391
  0.1940	  9.0441	  0.1363
  0.1980	  9.0401	  0.1387
  0.2020	  9.4529	  0.1592
  0.2060	  9.3702	  0.1526
  0.2100	  9.0798	  0.1382
  0.2140	  8.9855	  0.1281
  0.2180	  9.2135	  0.1375
  0.2220	  8.9066	  0.1153
  0.2260	  9.0139	  0.1237
  0.2300	  8.8048	  0.1118
  0.2340	  9.1097	  0.1235
  0.2380	  8.7480	  0.1058
  0.2420	  8.6970	  0.1059
  0.2460	  8.6378	  0.0997
  0.2500	  8.5072	  0.0946
  0.2540	  8.6154	  0.0961
  0.2580	  8.4100	  0.0852
  0.2620	  8.2540	  0.0790
  0.2660	  8.1211	  0.0734
  0.2700	  8.2931	  0.0770
  0.2740	  8.1030	  0.0699
  0.2780	  8.0987	  0.0671
  0.2820	  7.9850	  0.0630
  0.2860	  7.9400	  0.0608
  0.2900	  7.7787	  0.0551
  0.2940	  7.7643	  0.0535
  0.2980	  7.7866	  0.0522
  0.3020	  7.6968	  0.0486
  0.3060	  7.6890	  0.0472
  0.3100	  7.6929	  0.0453
  0.3140	  7.6307	  0.0429
  0.3180	  7.6788	  0.0422
  0.3220	  7.6759	  0.0409
  0.3260	  7.6690	  0.0394
  0.3300	  7.6680	  0.0381
  0.3340	  7.7182	  0.0374
  0.3380	  7.8472	  0.0383
  0.3420	  7.8093	  0.0360
  0.3460	  7.8510	  0.0354
  0.3500	  7.9557	  0.0358
  0.3540	  7.9477	  0.0342
  0.3580	  8.1413	  0.0355
  0.3620	  8.0671	  0.0333
  0.3660	  8.1767	  0.0335
  0.3700	  8.2624	  0.0334
  0.3740	  8.3895	  0.0337
  0.3780	  8.5322	  0.0345
  0.3820	  8.6207	  0.0342
  0.3860	  8.7920	  0.0354
  0.3900	  8.8921	  0.0355
  0.3940	  8.9400	  0.0345
  0.3980	  9.0602	  0.0347
  0.4020	  9.1816	  0.0350
  0.4060	  9.3594	  0.0361
  0.4100	  9.4331	  0.0356
  0.4140	  9.5895	  0.0363
  0.4180	  9.7683	  0.0375
  0.4220	  9.8379	  0.0370
  0.4260	 10.0388	  0.0382
  0.4300	 10.1776	  0.0387
  0.4340	 10.3155	  0.0395
  0.4380	 10.4631	  0.0402
  0.4420	 10.5954	  0.0404
  0.4460	 10.7996	  0.0419
  0.4500	 10.8443	  0.0408
  0.4540	 11.0502	  0.0428
  0.4580	 11.1656	  0.0426
  0.4620	 11.3630	  0.0439
  0.4660	 11.4980	  0.0445
  0.4700	 11.7303	  0.0469
  0.4740	 11.8254	  0.0461
  0.4780	 11.9053	  0.0455
  0.4820	 12.0853	  0.0468
  0.4860	 12.3173	  0.0490
  0.4900	 12.3933	  0.0481
  0.4940	 12.5151	  0.0481
  0.4980	 12.7521	  0.0507
  0.5020	 12.8686	  0.0506
  0.5060	 13.0399	  0.0517
  0.5100	 13.1232	  0.0506
  0.5140	 13.4215	  0.0541
  0.5180	 13.5091	  0.0533
  0.5220	 13.6720	  0.0546
  0.5260	 13.8074	  0.0554
  0.5300	 13.9121	  0.0543
  0.5340	 14.0553	  0.0540
  0.5380	 14.1053	  0.0513
  0.5420	 14.3097	  0.0528
  0.5460	 14.5171	  0.0529
  0.5500	 14.3983	  0.0461
  0.5540	 14.5239	  0.0457
  0.5580	 14.4269	  0.0407
  0.5620	 14.3962	  0.0379
  0.5660	 14.3271	  0.0342
  0.5700	 14.2968	  0.0324
  0.5740	 14.2612	  0.0306
  0.5780	 14.2580	  0.0289
  0.5820	 14.2486	  0.0275
  0.5860	 14.2685	  0.0262
  0.5900	 14.3219	  0.0255
  0.5940	 14.3540	  0.0247
  0.5980	 14.3898	  0.0237
  0.6020	 14.4464	  0.0231
  0.6060	 14.5330	  0.0228
  0.6100	 14.6156	  0.0224
  0.6140	 14.7566	  0.0223
  0.6180	 14.8811	  0.0221
  0.6220	 15.0030	  0.0221
  0.6260	 15.1918	  0.0224
  0.6300	 15.3157	  0.0222
  0.6340	 15.5194	  0.0226
  0.6380	 15.6841	  0.0227
  0.6420	 15.8592	  0.0229
  0.6460	 16.0508	  0.0232
  0.6500	 16.2688	  0.0236
  0.6540	 16.4433	  0.0239
  0.6580	 16.6796	  0.0245
  0.6620	 16.8349	  0.0245
  0.6660	 17.0533	  0.0250
  0.6700	 17.2996	  0.0258
  0.6740	 17.5404	  0.0266
  0.6780	 17.7342	  0.0267
  0.6820	 17.9422	  0.0273
  0.6860	 18.1685	  0.0279
  0.6900	 18.3465	  0.0281
  0.6940	 18.5669	  0.0285
  0.6980	 18.7816	  0.0292
  0.7020	 18.9884	  0.0295
  0.7060	 19.2200	  0.0303
  0.7100	 19.4815	  0.0314
  0.7140	 19.6301	  0.0313
  0.7180	 19.9331	  0.0331
  0.7220	 20.1096	  0.0331
  0.7260	 20.3645	  0.0344
  0.7300	 20.6437	  0.0360
  0.7340	 20.8405	  0.0364
  0.7380	 21.0453	  0.0370
  0.7420	 21.2909	  0.0383
  0.7460	 21.5620	  0.0397
  0.7500	 21.8862	  0.0425
  0.7540	 22.0364	  0.0420
  0.7580	 22.2733	  0.0430
  0.7620	 22.6315	  0.0468
  0.7660	 22.8153	  0.0468
  0.7700	 23.0752	  0.0488
  0.7740	 23.3435	  0.0505
  0.7780	 23.5388	  0.0513
  0.7820	 23.9166	  0.0558
  0.7860	 24.1826	  0.0583
  0.7900	 24.4404	  0.0601
  0.7940	 24.5173	  0.0580
  0.7980	 23.3794	  0.0261
