# distance (nm)	f (kT)	df (kT)
  0.0020	  5.6411	  0.0091
  0.0060	  3.6016	  0.0035
  0.0100	  2.5292	  0.0023
  0.0140	  1.8105	  0.0017
  0.0180	  1.2760	  0.0015
  0.0220	  0.8702	  0.0013
  0.0260	  0.5575	  0.0012
  0.0300	  0.3210	  0.0012
  0.0340	  0.1537	  0.0012
  0.0380	  0.0468	  0.0012
  0.0420	  0.0000	  0.0000
  0.0460	  0.0067	  0.0012
  0.0500	  0.0728	  0.0012
  0.0540	  0.1921	  0.0013
  0.0580	  0.3673	  0.0013
  0.0620	  0.5940	  0.0014
  0.0660	  0.8699	  0.0015
  0.0700	  1.1833	  0.0017
  0.0740	  1.5182	  0.0020
  0.0780	  1.8564	  0.0023
  0.0820	  2.1816	  0.0028
  0.0860	  2.4739	  0.0033
  0.0900	  2.7305	  0.0039
  0.0940	  2.9485	  0.0044
  0.0980	  3.1503	  0.0049
  0.1020	  3.3264	  0.0054
  0.1060	  3.5018	  0.0059
  0.1100	  3.6611	  0.0064
  0.1140	  3.8207	  0.0069
  0.1180	  3.9706	  0.0075
  0.1220	  4.1004	  0.0080
  0.1260	  4.2442	  0.0086
  0.1300	  4.3540	  0.0091
  0.1340	  4.4847	  0.0097
  0.1380	  4.5817	  0.0102
  0.1420	  4.7006	  0.0108
  0.1460	  4.7457	  0.0112
  0.1500	  4.8176	  0.0116
  0.1540	  4.8824	  0.0122
  0.1580	  4.9289	  0.0126
  0.1620	  4.9719	  0.0130
  0.1660	  4.9661	  0.0132
  0.1700	  4.9828	  0.0134
  0.1740	  4.9539	  0.0136
  0.1780	  4.9381	  0.0136
  0.1820	  4.9401	  0.0139
  0.1860	  4.8732	  0.0138
  0.1900	  4.8343	  0.0138
  0.1940	  4.7188	  0.0134
  0.1980	  4.6689	  0.0135
  0.2020	  4.5833	  0.0133
  0.2060	  4.4725	  0.0129
  0.2100	  4.3804	  0.0127
  0.2140	  4.2552	  0.0124
  0.2180	  4.1381	  0.0121
  0.2220	  4.0196	  0.0118
  0.2260	  3.8911	  0.0114
  0.2300	  3.7281	  0.0109
  0.2340	  3.5828	  0.0105
  0.2380	  3.4126	  0.0100
  0.2420	  3.2737	  0.0096
  0.2460	  3.1181	  0.0092
  0.2500	  2.9693	  0.0088
  0.2540	  2.7960	  0.0083
  0.2580	  2.6440	  0.0080
  0.2620	  2.4734	  0.0075
  0.2660	  2.3316	  0.0072
  0.2700	  2.1699	  0.0068
  0.2740	  2.0392	  0.0065
  0.2780	  1.8849	  0.0062
  0.2820	  1.7418	  0.0059
  0.2860	  1.5979	  0.0056
  0.2900	  1.4697	  0.0054
  0.2940	  1.3410	  0.0051
  0.2980	  1.2174	  0.0049
  0.3020	  1.1062	  0.0047
  0.3060	  1.0025	  0.0045
  0.3100	  0.8917	  0.0043
  0.3140	  0.8042	  0.0042
  0.3180	  0.7173	  0.0041
  0.3220	  0.6364	  0.0039
  0.3260	  0.5653	  0.0038
  0.3300	  0.4899	  0.0037
  0.3340	  0.4283	  0.0036
  0.3380	  0.3746	  0.0036
  0.3420	  0.3254	  0.0035
  0.3460	  0.2983	  0.0035
  0.3500	  0.2506	  0.0034
  0.3540	  0.2279	  0.0034
  0.3580	  0.2090	  0.0033
  0.3620	  0.1907	  0.0033
  0.3660	  0.1741	  0.0033
  0.3700	  0.1683	  0.0033
  0.3740	  0.1760	  0.0033
  0.3780	  0.1781	  0.0033
  0.3820	  0.1844	  0.0033
  0.3860	  0.2046	  0.0033
  0.3900	  0.2248	  0.0033
  0.3940	  0.2389	  0.0034
  0.3980	  0.2644	  0.0034
  0.4020	  0.2900	  0.0034
  0.4060	  0.3250	  0.0035
  0.4100	  0.3559	  0.0035
  0.4140	  0.3963	  0.0035
  0.4180	  0.4402	  0.0036
  0.4220	  0.4685	  0.0036
  0.4260	  0.5226	  0.0037
  0.4300	  0.5666	  0.0037
  0.4340	  0.6049	  0.0038
  0.4380	  0.6621	  0.0039
  0.4420	  0.7121	  0.0039
  0.4460	  0.7651	  0.0040
  0.4500	  0.8046	  0.0040
  0.4540	  0.8582	  0.0041
  0.4580	  0.9189	  0.0042
  0.4620	  0.9689	  0.0042
  0.4660	  1.0293	  0.0043
  0.4700	  1.0811	  0.0044
  0.4740	  1.1347	  0.0045
  0.4780	  1.1899	  0.0045
  0.4820	  1.2487	  0.0046
  0.4860	  1.2993	  0.0047
  0.4900	  1.3541	  0.0047
  0.4940	  1.4203	  0.0048
  0.4980	  1.4613	  0.0048
  0.5020	  1.5172	  0.0049
  0.5060	  1.5713	  0.0050
  0.5100	  1.6247	  0.0050
  0.5140	  1.6797	  0.0051
  0.5180	  1.7387	  0.0051
  0.5220	  1.7753	  0.0052
  0.5260	  1.8247	  0.0052
  0.5300	  1.8655	  0.0052
  0.5340	  1.8879	  0.0051
  0.5380	  1.8930	  0.0050
  0.5420	  1.8751	  0.0048
  0.5460	  1.8408	  0.0046
  0.5500	  1.7714	  0.0043
  0.5540	  1.6742	  0.0041
  0.5580	  1.5549	  0.0038
  0.5620	  1.4309	  0.0035
  0.5660	  1.3009	  0.0033
  0.5700	  1.1754	  0.0031
  0.5740	  1.0593	  0.0029
  0.5780	  0.9517	  0.0027
  0.5820	  0.8666	  0.0026
  0.5860	  0.7862	  0.0025
  0.5900	  0.7288	  0.0024
  0.5940	  0.6794	  0.0023
  0.5980	  0.6485	  0.0023
  0.6020	  0.6354	  0.0022
  0.6060	  0.6285	  0.0022
  0.6100	  0.6416	  0.0022
  0.6140	  0.6647	  0.0022
  0.6180	  0.7011	  0.0021
  0.6220	  0.7508	  0.0021
  0.6260	  0.8057	  0.0022
  0.6300	  0.8725	  0.0022
  0.6340	  0.9475	  0.0022
  0.6380	  1.0338	  0.0022
  0.6420	  1.1262	  0.0022
  0.6460	  1.2163	  0.0022
  0.6500	  1.3194	  0.0023
  0.6540	  1.4264	  0.0023
  0.6580	  1.5369	  0.0024
  0.6620	  1.6417	  0.0024
  0.6660	  1.7555	  0.0024
  0.6700	  1.8702	  0.0025
  0.6740	  1.9864	  0.0025
  0.6780	  2.1010	  0.0026
  0.6820	  2.2188	  0.0026
  0.6860	  2.3341	  0.0027
  0.6900	  2.4547	  0.0027
  0.6940	  2.5728	  0.0028
  0.6980	  2.6887	  0.0028
  0.7020	  2.8123	  0.0029
  0.7060	  2.9345	  0.0029
  0.7100	  3.0500	  0.0030
  0.7140	  3.1817	  0.0031
  0.7180	  3.3111	  0.0031
  0.7220	  3.4389	  0.0032
  0.7260	  3.5777	  0.0033
  0.7300	  3.7154	  0.0034
  0.7340	  3.8561	  0.0035
  0.7380	  4.0013	  0.0036
  0.7420	  4.1474	  0.0037
  0.7460	  4.3075	  0.0038
  0.7500	  4.4643	  0.0040
  0.7540	  4.6192	  0.0041
  0.7580	  4.7692	  0.0042
  0.7620	  4.9285	  0.0044
  0.7660	  5.0983	  0.0046
  0.7700	  5.2454	  0.0047
  0.7740	  5.4083	  0.0049
  0.7780	  5.5600	  0.0050
  0.7820	  5.7258	  0.0052
  0.7860	  5.8949	  0.0054
  0.7900	  6.0453	  0.0056
  0.7940	  6.2081	  0.0058
  0.7980	  4.3824	  0.0022
