# distance (nm)	f (kT)	df (kT)
  0.0020	  5.8332	  0.0092
  0.0060	  3.8147	  0.0035
  0.0100	  2.7591	  0.0023
  0.0140	  2.0511	  0.0018
  0.0180	  1.5202	  0.0015
  0.0220	  1.1100	  0.0014
  0.0260	  0.7846	  0.0013
  0.0300	  0.5262	  0.0012
  0.0340	  0.3268	  0.0012
  0.0380	  0.1772	  0.0012
  0.0420	  0.0756	  0.0012
  0.0460	  0.0149	  0.0012
  0.0500	  0.0000	  0.0000
  0.0540	  0.0246	  0.0013
  0.0580	  0.0923	  0.0014
  0.0620	  0.2002	  0.0014
  0.0660	  0.3497	  0.0015
  0.0700	  0.5379	  0.0016
  0.0740	  0.7612	  0.0018
  0.0780	  1.0144	  0.0020
  0.0820	  1.2929	  0.0022
  0.0860	  1.5820	  0.0025
  0.0900	  1.8713	  0.0028
  0.0940	  2.1387	  0.0033
  0.0980	  2.3855	  0.0038
  0.1020	  2.5961	  0.0043
  0.1060	  2.7840	  0.0048
  0.1100	  2.9395	  0.0053
  0.1140	  3.0891	  0.0058
  0.1180	  3.2158	  0.0062
  0.1220	  3.3345	  0.0066
  0.1260	  3.4588	  0.0071
  0.1300	  3.5564	  0.0075
  0.1340	  3.6628	  0.0080
  0.1380	  3.7554	  0.0084
  0.1420	  3.8555	  0.0088
  0.1460	  3.9063	  0.0091
  0.1500	  3.9714	  0.0094
  0.1540	  4.0486	  0.0099
  0.1580	  4.0978	  0.0101
  0.1620	  4.1423	  0.0104
  0.1660	  4.1671	  0.0106
  0.1700	  4.1919	  0.0107
  0.1740	  4.2095	  0.0109
  0.1780	  4.2115	  0.0110
  0.1820	  4.2413	  0.0112
  0.1860	  4.2093	  0.0110
  0.1900	  4.2093	  0.0111
  0.1940	  4.1467	  0.0108
  0.1980	  4.1458	  0.0109
  0.2020	  4.1096	  0.0107
  0.2060	  4.0584	  0.0105
  0.2100	  4.0231	  0.0104
  0.2140	  3.9611	  0.0101
  0.2180	  3.9108	  0.0099
  0.2220	  3.8624	  0.0097
  0.2260	  3.7963	  0.0094
  0.2300	  3.7073	  0.0090
  0.2340	  3.6367	  0.0087
  0.2380	  3.5481	  0.0084
  0.2420	  3.4832	  0.0081
  0.2460	  3.4045	  0.0078
  0.2500	  3.3319	  0.0075
  0.2540	  3.2366	  0.0072
  0.2580	  3.1616	  0.0069
  0.2620	  3.0712	  0.0066
  0.2660	  3.0074	  0.0063
  0.2700	  2.9206	  0.0060
  0.2740	  2.8609	  0.0058
  0.2780	  2.7849	  0.0055
  0.2820	  2.7134	  0.0053
  0.2860	  2.6434	  0.0051
  0.2900	  2.5849	  0.0049
  0.2940	  2.5202	  0.0047
  0.2980	  2.4673	  0.0045
  0.3020	  2.4165	  0.0044
  0.3060	  2.3761	  0.0042
  0.3100	  2.3285	  0.0041
  0.3140	  2.2955	  0.0040
  0.3180	  2.2676	  0.0039
  0.3220	  2.2397	  0.0038
  0.3260	  2.2216	  0.0037
  0.3300	  2.1974	  0.0036
  0.3340	  2.1847	  0.0035
  0.3380	  2.1811	  0.0035
  0.3420	  2.1749	  0.0034
  0.3460	  2.1921	  0.0034
  0.3500	  2.1870	  0.0033
  0.3540	  2.2036	  0.0033
  0.3580	  2.2220	  0.0033
  0.3620	  2.2396	  0.0033
  0.3660	  2.2596	  0.0032
  0.3700	  2.2917	  0.0032
  0.3740	  2.3314	  0.0032
  0.3780	  2.3657	  0.0032
  0.3820	  2.4013	  0.0032
  0.3860	  2.4512	  0.0033
  0.3900	  2.5010	  0.0033
  0.3940	  2.5430	  0.0033
  0.3980	  2.5968	  0.0033
  0.4020	  2.6479	  0.0034
  0.4060	  2.7096	  0.0034
  0.4100	  2.7673	  0.0034
  0.4140	  2.8314	  0.0035
  0.4180	  2.9030	  0.0035
  0.4220	  2.9600	  0.0036
  0.4260	  3.0358	  0.0036
  0.4300	  3.0964	  0.0037
  0.4340	  3.1665	  0.0037
  0.4380	  3.2464	  0.0038
  0.4420	  3.3204	  0.0038
  0.4460	  3.3965	  0.0039
  0.4500	  3.4565	  0.0039
  0.4540	  3.5393	  0.0040
  0.4580	  3.6194	  0.0041
  0.4620	  3.6925	  0.0041
  0.4660	  3.7778	  0.0042
  0.4700	  3.8529	  0.0042
  0.4740	  3.9308	  0.0043
  0.4780	  4.0074	  0.0044
  0.4820	  4.0879	  0.0044
  0.4860	  4.1643	  0.0045
  0.4900	  4.2447	  0.0045
  0.4940	  4.3334	  0.0046
  0.4980	  4.4005	  0.0046
  0.5020	  4.4788	  0.0047
  0.5060	  4.5548	  0.0047
  0.5100	  4.6322	  0.0048
  0.5140	  4.7011	  0.0048
  0.5180	  4.7726	  0.0048
  0.5220	  4.8140	  0.0048
  0.5260	  4.8614	  0.0047
  0.5300	  4.8761	  0.0046
  0.5340	  4.8740	  0.0045
  0.5380	  4.8447	  0.0043
  0.5420	  4.7982	  0.0041
  0.5460	  4.7418	  0.0040
  0.5500	  4.6723	  0.0037
  0.5540	  4.5929	  0.0035
  0.5580	  4.5087	  0.0033
  0.5620	  4.4379	  0.0031
  0.5660	  4.3685	  0.0030
  0.5700	  4.3128	  0.0028
  0.5740	  4.2671	  0.0027
  0.5780	  4.2318	  0.0026
  0.5820	  4.2131	  0.0025
  0.5860	  4.2026	  0.0024
  0.5900	  4.2118	  0.0023
  0.5940	  4.2266	  0.0023
  0.5980	  4.2577	  0.0022
  0.6020	  4.3053	  0.0022
  0.6060	  4.3548	  0.0022
  0.6100	  4.4202	  0.0021
  0.6140	  4.4936	  0.0021
  0.6180	  4.5757	  0.0021
  0.6220	  4.6709	  0.0021
  0.6260	  4.7665	  0.0021
  0.6300	  4.8734	  0.0021
  0.6340	  4.9853	  0.0022
  0.6380	  5.1076	  0.0022
  0.6420	  5.2309	  0.0022
  0.6460	  5.3538	  0.0022
  0.6500	  5.4876	  0.0023
  0.6540	  5.6219	  0.0023
  0.6580	  5.7599	  0.0023
  0.6620	  5.8912	  0.0024
  0.6660	  6.0328	  0.0024
  0.6700	  6.1715	  0.0024
  0.6740	  6.3140	  0.0025
  0.6780	  6.4506	  0.0025
  0.6820	  6.5957	  0.0026
  0.6860	  6.7377	  0.0026
  0.6900	  6.8876	  0.0027
  0.6940	  7.0311	  0.0027
  0.6980	  7.1796	  0.0028
  0.7020	  7.3306	  0.0028
  0.7060	  7.4846	  0.0029
  0.7100	  7.6359	  0.0029
  0.7140	  7.7989	  0.0030
  0.7180	  7.9642	  0.0031
  0.7220	  8.1235	  0.0031
  0.7260	  8.2955	  0.0032
  0.7300	  8.4674	  0.0033
  0.7340	  8.6424	  0.0034
  0.7380	  8.8170	  0.0035
  0.7420	  8.9928	  0.0036
  0.7460	  9.1824	  0.0037
  0.7500	  9.3664	  0.0038
  0.7540	  9.5471	  0.0040
  0.7580	  9.7277	  0.0041
  0.7620	  9.9162	  0.0042
  0.7660	 10.1072	  0.0044
  0.7700	 10.2829	  0.0045
  0.7740	 10.4702	  0.0047
  0.7780	 10.6539	  0.0048
  0.7820	 10.8487	  0.0050
  0.7860	 11.0361	  0.0052
  0.7900	 11.2213	  0.0053
  0.7940	 11.3989	  0.0055
  0.7980	  9.7583	  0.0022
