# distance (nm)	f (kT)	df (kT)
  0.0020	  7.6229	  0.0104
  0.0060	  5.7030	  0.0042
  0.0100	  4.7399	  0.0028
  0.0140	  4.1238	  0.0023
  0.0180	  3.6821	  0.0020
  0.0220	  3.3577	  0.0019
  0.0260	  3.1155	  0.0018
  0.0300	  2.9369	  0.0018
  0.0340	  2.8110	  0.0018
  0.0380	  2.7317	  0.0018
  0.0420	  2.6943	  0.0018
  0.0460	  2.6922	  0.0018
  0.0500	  2.7303	  0.0018
  0.0540	  2.7999	  0.0018
  0.0580	  2.9073	  0.0019
  0.0620	  3.0490	  0.0020
  0.0660	  3.2266	  0.0021
  0.0700	  3.4400	  0.0022
  0.0740	  3.6863	  0.0023
  0.0780	  3.9623	  0.0025
  0.0820	  4.2682	  0.0027
  0.0860	  4.5896	  0.0030
  0.0900	  4.9278	  0.0033
  0.0940	  5.2587	  0.0037
  0.0980	  5.5777	  0.0041
  0.1020	  5.8722	  0.0046
  0.1060	  6.1415	  0.0052
  0.1100	  6.3684	  0.0058
  0.1140	  6.5796	  0.0063
  0.1180	  6.7567	  0.0068
  0.1220	  6.9368	  0.0073
  0.1260	  7.0992	  0.0078
  0.1300	  7.2427	  0.0083
  0.1340	  7.3888	  0.0087
  0.1380	  7.5290	  0.0092
  0.1420	  7.6578	  0.0096
  0.1460	  7.7470	  0.0099
  0.1500	  7.8560	  0.0103
  0.1540	  7.9613	  0.0107
  0.1580	  8.0521	  0.0110
  0.1620	  8.1331	  0.0112
  0.1660	  8.1774	  0.0113
  0.1700	  8.2414	  0.0115
  0.1740	  8.2904	  0.0116
  0.1780	  8.3237	  0.0117
  0.1820	  8.3863	  0.0119
  0.1860	  8.3786	  0.0117
  0.1900	  8.4179	  0.0118
  0.1940	  8.3884	  0.0115
  0.1980	  8.4073	  0.0115
  0.2020	  8.4096	  0.0113
  0.2060	  8.3854	  0.0111
  0.2100	  8.3768	  0.0110
  0.2140	  8.3519	  0.0107
  0.2180	  8.3255	  0.0104
  0.2220	  8.3070	  0.0102
  0.2260	  8.2588	  0.0099
  0.2300	  8.1992	  0.0095
  0.2340	  8.1538	  0.0092
  0.2380	  8.0917	  0.0089
  0.2420	  8.0489	  0.0086
  0.2460	  7.9953	  0.0083
  0.2500	  7.9408	  0.0080
  0.2540	  7.8628	  0.0076
  0.2580	  7.8072	  0.0073
  0.2620	  7.7385	  0.0070
  0.2660	  7.6912	  0.0068
  0.2700	  7.6255	  0.0065
  0.2740	  7.5758	  0.0062
  0.2780	  7.5119	  0.0060
  0.2820	  7.4493	  0.0057
  0.2860	  7.3889	  0.0055
  0.2900	  7.3396	  0.0053
  0.2940	  7.2779	  0.0051
  0.2980	  7.2296	  0.0049
  0.3020	  7.1826	  0.0048
  0.3060	  7.1404	  0.0046
  0.3100	  7.0918	  0.0045
  0.3140	  7.0544	  0.0044
  0.3180	  7.0261	  0.0043
  0.3220	  6.9881	  0.0042
  0.3260	  6.9618	  0.0041
  0.3300	  6.9298	  0.0040
  0.3340	  6.9053	  0.0039
  0.3380	  6.8891	  0.0038
  0.3420	  6.8688	  0.0038
  0.3460	  6.8698	  0.0038
  0.3500	  6.8485	  0.0037
  0.3540	  6.8451	  0.0037
  0.3580	  6.8440	  0.0037
  0.3620	  6.8372	  0.0036
  0.3660	  6.8347	  0.0036
  0.3700	  6.8436	  0.0036
  0.3740	  6.8568	  0.0036
  0.3780	  6.8656	  0.0036
  0.3820	  6.8727	  0.0036
  0.3860	  6.8918	  0.0037
  0.3900	  6.9126	  0.0037
  0.3940	  6.9239	  0.0037
  0.3980	  6.9432	  0.0037
  0.4020	  6.9590	  0.0037
  0.4060	  6.9860	  0.0038
  0.4100	  7.0081	  0.0038
  0.4140	  7.0347	  0.0039
  0.4180	  7.0674	  0.0039
  0.4220	  7.0874	  0.0039
  0.4260	  7.1222	  0.0040
  0.4300	  7.1386	  0.0040
  0.4340	  7.1689	  0.0041
  0.4380	  7.2049	  0.0042
  0.4420	  7.2341	  0.0042
  0.4460	  7.2635	  0.0043
  0.4500	  7.2783	  0.0043
  0.4540	  7.3112	  0.0044
  0.4580	  7.3429	  0.0044
  0.4620	  7.3644	  0.0045
  0.4660	  7.4000	  0.0046
  0.4700	  7.4226	  0.0046
  0.4740	  7.4471	  0.0047
  0.4780	  7.4696	  0.0048
  0.4820	  7.4946	  0.0048
  0.4860	  7.5105	  0.0049
  0.4900	  7.5387	  0.0050
  0.4940	  7.5635	  0.0050
  0.4980	  7.5674	  0.0051
  0.5020	  7.5845	  0.0051
  0.5060	  7.5910	  0.0052
  0.5100	  7.6016	  0.0052
  0.5140	  7.5935	  0.0052
  0.5180	  7.5884	  0.0052
  0.5220	  7.5441	  0.0052
  0.5260	  7.5084	  0.0051
  0.5300	  7.4270	  0.0050
  0.5340	  7.3319	  0.0049
  0.5380	  7.2138	  0.0047
  0.5420	  7.0796	  0.0045
  0.5460	  6.9453	  0.0043
  0.5500	  6.7966	  0.0041
  0.5540	  6.6492	  0.0039
  0.5580	  6.4898	  0.0036
  0.5620	  6.3505	  0.0035
  0.5660	  6.2110	  0.0033
  0.5700	  6.0836	  0.0031
  0.5740	  5.9662	  0.0030
  0.5780	  5.8531	  0.0029
  0.5820	  5.7598	  0.0028
  0.5860	  5.6710	  0.0027
  0.5900	  5.5980	  0.0027
  0.5940	  5.5276	  0.0026
  0.5980	  5.4721	  0.0026
  0.6020	  5.4315	  0.0025
  0.6060	  5.3892	  0.0025
  0.6100	  5.3598	  0.0025
  0.6140	  5.3378	  0.0025
  0.6180	  5.3196	  0.0025
  0.6220	  5.3131	  0.0025
  0.6260	  5.3050	  0.0025
  0.6300	  5.3056	  0.0025
  0.6340	  5.3109	  0.0025
  0.6380	  5.3239	  0.0025
  0.6420	  5.3347	  0.0026
  0.6460	  5.3442	  0.0026
  0.6500	  5.3639	  0.0026
  0.6540	  5.3809	  0.0027
  0.6580	  5.4003	  0.0027
  0.6620	  5.4102	  0.0027
  0.6660	  5.4329	  0.0028
  0.6700	  5.4480	  0.0028
  0.6740	  5.4679	  0.0029
  0.6780	  5.4804	  0.0029
  0.6820	  5.5030	  0.0030
  0.6860	  5.5200	  0.0030
  0.6900	  5.5459	  0.0031
  0.6940	  5.5628	  0.0031
  0.6980	  5.5872	  0.0032
  0.7020	  5.6092	  0.0032
  0.7060	  5.6372	  0.0033
  0.7100	  5.6620	  0.0034
  0.7140	  5.6962	  0.0034
  0.7180	  5.7338	  0.0035
  0.7220	  5.7612	  0.0036
  0.7260	  5.8042	  0.0037
  0.7300	  5.8471	  0.0038
  0.7340	  5.8903	  0.0039
  0.7380	  5.9318	  0.0040
  0.7420	  5.9768	  0.0041
  0.7460	  6.0307	  0.0042
  0.7500	  6.0803	  0.0044
  0.7540	  6.1294	  0.0045
  0.7580	  6.1761	  0.0046
  0.7620	  6.2303	  0.0048
  0.7660	  6.2841	  0.0050
  0.7700	  6.3248	  0.0051
  0.7740	  6.3741	  0.0053
  0.7780	  6.4239	  0.0055
  0.7820	  6.4780	  0.0056
  0.7860	  6.5285	  0.0058
  0.7900	  6.5820	  0.0060
  0.7940	  6.6167	  0.0062
  0.7980	  0.0000	  0.0000
