# distance (nm)	f (kT)	df (kT)
  0.0020	  9.0877	  0.0094
  0.0060	  7.0261	  0.0040
  0.0100	  5.9347	  0.0030
  0.0140	  5.2022	  0.0026
  0.0180	  4.6598	  0.0025
  0.0220	  4.2530	  0.0024
  0.0260	  3.9465	  0.0023
  0.0300	  3.7241	  0.0023
  0.0340	  3.5796	  0.0023
  0.0380	  3.5049	  0.0023
  0.0420	  3.5005	  0.0023
  0.0460	  3.5602	  0.0023
  0.0500	  3.6901	  0.0023
  0.0540	  3.8827	  0.0024
  0.0580	  4.1381	  0.0024
  0.0620	  4.4464	  0.0025
  0.0660	  4.7967	  0.0026
  0.0700	  5.1641	  0.0028
  0.0740	  5.5207	  0.0032
  0.0780	  5.8466	  0.0036
  0.0820	  6.1369	  0.0041
  0.0860	  6.3930	  0.0046
  0.0900	  6.6245	  0.0050
  0.0940	  6.8327	  0.0055
  0.0980	  7.0360	  0.0061
  0.1020	  7.2228	  0.0066
  0.1060	  7.4150	  0.0072
  0.1100	  7.5920	  0.0078
  0.1140	  7.7666	  0.0084
  0.1180	  7.9367	  0.0091
  0.1220	  8.0754	  0.0097
  0.1260	  8.2326	  0.0105
  0.1300	  8.3506	  0.0111
  0.1340	  8.4975	  0.0118
  0.1380	  8.5941	  0.0125
  0.1420	  8.7258	  0.0133
  0.1460	  8.7587	  0.0137
  0.1500	  8.8350	  0.0143
  0.1540	  8.8784	  0.0150
  0.1580	  8.9196	  0.0155
  0.1620	  8.9500	  0.0161
  0.1660	  8.9127	  0.0163
  0.1700	  8.9177	  0.0166
  0.1740	  8.8475	  0.0167
  0.1780	  8.8105	  0.0169
  0.1820	  8.7762	  0.0173
  0.1860	  8.6717	  0.0171
  0.1900	  8.5955	  0.0170
  0.1940	  8.4326	  0.0165
  0.1980	  8.3293	  0.0166
  0.2020	  8.1895	  0.0164
  0.2060	  8.0316	  0.0158
  0.2100	  7.8790	  0.0157
  0.2140	  7.6941	  0.0151
  0.2180	  7.5082	  0.0147
  0.2220	  7.3203	  0.0144
  0.2260	  7.1325	  0.0138
  0.2300	  6.8981	  0.0132
  0.2340	  6.6848	  0.0126
  0.2380	  6.4329	  0.0120
  0.2420	  6.2263	  0.0115
  0.2460	  5.9985	  0.0110
  0.2500	  5.7760	  0.0105
  0.2540	  5.5314	  0.0099
  0.2580	  5.3033	  0.0094
  0.2620	  5.0619	  0.0089
  0.2660	  4.8453	  0.0085
  0.2700	  4.6137	  0.0080
  0.2740	  4.4142	  0.0077
  0.2780	  4.1871	  0.0073
  0.2820	  3.9762	  0.0069
  0.2860	  3.7648	  0.0066
  0.2900	  3.5709	  0.0063
  0.2940	  3.3815	  0.0060
  0.2980	  3.1919	  0.0057
  0.3020	  3.0234	  0.0055
  0.3060	  2.8594	  0.0053
  0.3100	  2.6907	  0.0051
  0.3140	  2.5506	  0.0049
  0.3180	  2.4081	  0.0048
  0.3220	  2.2755	  0.0047
  0.3260	  2.1531	  0.0045
  0.3300	  2.0279	  0.0044
  0.3340	  1.9205	  0.0043
  0.3380	  1.8193	  0.0042
  0.3420	  1.7267	  0.0042
  0.3460	  1.6578	  0.0041
  0.3500	  1.5678	  0.0041
  0.3540	  1.5055	  0.0040
  0.3580	  1.4498	  0.0040
  0.3620	  1.3935	  0.0040
  0.3660	  1.3399	  0.0039
  0.3700	  1.2981	  0.0039
  0.3740	  1.2711	  0.0039
  0.3780	  1.2399	  0.0039
  0.3820	  1.2154	  0.0039
  0.3860	  1.2041	  0.0039
  0.3900	  1.1932	  0.0040
  0.3940	  1.1773	  0.0040
  0.3980	  1.1731	  0.0040
  0.4020	  1.1701	  0.0040
  0.4060	  1.1765	  0.0041
  0.4100	  1.1789	  0.0041
  0.4140	  1.1914	  0.0042
  0.4180	  1.2061	  0.0042
  0.4220	  1.2053	  0.0042
  0.4260	  1.2343	  0.0043
  0.4300	  1.2549	  0.0044
  0.4340	  1.2630	  0.0044
  0.4380	  1.2934	  0.0045
  0.4420	  1.3170	  0.0045
  0.4460	  1.3432	  0.0046
  0.4500	  1.3584	  0.0046
  0.4540	  1.3825	  0.0047
  0.4580	  1.4192	  0.0048
  0.4620	  1.4418	  0.0049
  0.4660	  1.4750	  0.0049
  0.4700	  1.5010	  0.0050
  0.4740	  1.5279	  0.0051
  0.4780	  1.5575	  0.0051
  0.4820	  1.5906	  0.0052
  0.4860	  1.6124	  0.0053
  0.4900	  1.6391	  0.0054
  0.4940	  1.6799	  0.0055
  0.4980	  1.6925	  0.0055
  0.5020	  1.7208	  0.0056
  0.5060	  1.7489	  0.0056
  0.5100	  1.7737	  0.0057
  0.5140	  1.8034	  0.0058
  0.5180	  1.8360	  0.0058
  0.5220	  1.8476	  0.0059
  0.5260	  1.8721	  0.0059
  0.5300	  1.8989	  0.0060
  0.5340	  1.9063	  0.0060
  0.5380	  1.9077	  0.0059
  0.5420	  1.8939	  0.0058
  0.5460	  1.8737	  0.0057
  0.5500	  1.8114	  0.0054
  0.5540	  1.7221	  0.0051
  0.5580	  1.5923	  0.0048
  0.5620	  1.4430	  0.0044
  0.5660	  1.2755	  0.0041
  0.5700	  1.1008	  0.0039
  0.5740	  0.9285	  0.0036
  0.5780	  0.7637	  0.0035
  0.5820	  0.6243	  0.0033
  0.5860	  0.4865	  0.0032
  0.5900	  0.3731	  0.0031
  0.5940	  0.2696	  0.0030
  0.5980	  0.1860	  0.0029
  0.6020	  0.1209	  0.0029
  0.6060	  0.0646	  0.0028
  0.6100	  0.0299	  0.0028
  0.6140	  0.0070	  0.0028
  0.6180	  0.0000	  0.0000
  0.6220	  0.0067	  0.0028
  0.6260	  0.0217	  0.0028
  0.6300	  0.0497	  0.0028
  0.6340	  0.0877	  0.0028
  0.6380	  0.1386	  0.0028
  0.6420	  0.1981	  0.0028
  0.6460	  0.2540	  0.0028
  0.6500	  0.3255	  0.0029
  0.6540	  0.4023	  0.0029
  0.6580	  0.4829	  0.0029
  0.6620	  0.5584	  0.0030
  0.6660	  0.6426	  0.0030
  0.6700	  0.7302	  0.0031
  0.6740	  0.8176	  0.0031
  0.6780	  0.9058	  0.0032
  0.6820	  0.9966	  0.0032
  0.6860	  1.0836	  0.0032
  0.6900	  1.1758	  0.0033
  0.6940	  1.2669	  0.0034
  0.6980	  1.3524	  0.0034
  0.7020	  1.4488	  0.0035
  0.7060	  1.5406	  0.0035
  0.7100	  1.6231	  0.0036
  0.7140	  1.7244	  0.0036
  0.7180	  1.8180	  0.0037
  0.7220	  1.9137	  0.0038
  0.7260	  2.0191	  0.0039
  0.7300	  2.1223	  0.0040
  0.7340	  2.2286	  0.0041
  0.7380	  2.3429	  0.0042
  0.7420	  2.4577	  0.0043
  0.7460	  2.5862	  0.0044
  0.7500	  2.7127	  0.0046
  0.7540	  2.8397	  0.0047
  0.7580	  2.9579	  0.0048
  0.7620	  3.0872	  0.0050
  0.7660	  3.2310	  0.0052
  0.7700	  3.3479	  0.0053
  0.7740	  3.4825	  0.0055
  0.7780	  3.6022	  0.0057
  0.7820	  3.7384	  0.0059
  0.7860	  3.8819	  0.0061
  0.7900	  4.0004	  0.0063
  0.7940	  4.1381	  0.0066
  0.7980	  2.0702	  0.0027
