# distance (nm)	f (kT)	df (kT)
  0.0020	  9.2808	  0.0105
  0.0060	  7.3559	  0.0043
  0.0100	  6.3835	  0.0030
  0.0140	  5.7528	  0.0025
  0.0180	  5.2925	  0.0023
  0.0220	  4.9435	  0.0022
  0.0260	  4.6714	  0.0021
  0.0300	  4.4570	  0.0021
  0.0340	  4.2884	  0.0021
  0.0380	  4.1595	  0.0021
  0.0420	  4.0649	  0.0021
  0.0460	  3.9976	  0.0021
  0.0500	  3.9613	  0.0021
  0.0540	  3.9467	  0.0021
  0.0580	  3.9606	  0.0022
  0.0620	  3.9977	  0.0023
  0.0660	  4.0601	  0.0023
  0.0700	  4.1487	  0.0025
  0.0740	  4.2610	  0.0026
  0.0780	  4.3950	  0.0028
  0.0820	  4.5551	  0.0030
  0.0860	  4.7364	  0.0033
  0.0900	  4.9403	  0.0036
  0.0940	  5.1614	  0.0040
  0.0980	  5.3929	  0.0045
  0.1020	  5.6320	  0.0051
  0.1060	  5.8956	  0.0057
  0.1100	  6.1250	  0.0063
  0.1140	  6.3543	  0.0069
  0.1180	  6.5821	  0.0075
  0.1220	  6.7835	  0.0081
  0.1260	  6.9674	  0.0086
  0.1300	  7.1317	  0.0090
  0.1340	  7.2739	  0.0094
  0.1380	  7.4116	  0.0099
  0.1420	  7.5115	  0.0103
  0.1460	  7.5980	  0.0105
  0.1500	  7.6879	  0.0109
  0.1540	  7.7854	  0.0112
  0.1580	  7.8614	  0.0115
  0.1620	  7.9219	  0.0118
  0.1660	  7.9500	  0.0119
  0.1700	  8.0099	  0.0120
  0.1740	  8.0581	  0.0122
  0.1780	  8.0833	  0.0123
  0.1820	  8.1382	  0.0125
  0.1860	  8.1382	  0.0123
  0.1900	  8.1712	  0.0124
  0.1940	  8.1554	  0.0122
  0.1980	  8.1734	  0.0121
  0.2020	  8.1748	  0.0120
  0.2060	  8.1834	  0.0119
  0.2100	  8.1860	  0.0117
  0.2140	  8.1703	  0.0115
  0.2180	  8.1589	  0.0113
  0.2220	  8.1564	  0.0111
  0.2260	  8.1401	  0.0108
  0.2300	  8.0980	  0.0105
  0.2340	  8.0775	  0.0102
  0.2380	  8.0444	  0.0099
  0.2420	  8.0215	  0.0096
  0.2460	  8.0024	  0.0093
  0.2500	  7.9652	  0.0091
  0.2540	  7.9150	  0.0087
  0.2580	  7.8896	  0.0084
  0.2620	  7.8496	  0.0082
  0.2660	  7.8189	  0.0080
  0.2700	  7.7877	  0.0077
  0.2740	  7.7600	  0.0075
  0.2780	  7.7178	  0.0072
  0.2820	  7.6813	  0.0070
  0.2860	  7.6514	  0.0068
  0.2900	  7.6140	  0.0066
  0.2940	  7.5742	  0.0064
  0.2980	  7.5551	  0.0062
  0.3020	  7.5258	  0.0061
  0.3060	  7.4984	  0.0059
  0.3100	  7.4726	  0.0058
  0.3140	  7.4517	  0.0056
  0.3180	  7.4346	  0.0056
  0.3220	  7.4082	  0.0055
  0.3260	  7.3931	  0.0054
  0.3300	  7.3702	  0.0053
  0.3340	  7.3627	  0.0052
  0.3380	  7.3497	  0.0052
  0.3420	  7.3379	  0.0051
  0.3460	  7.3450	  0.0051
  0.3500	  7.3294	  0.0050
  0.3540	  7.3283	  0.0050
  0.3580	  7.3351	  0.0050
  0.3620	  7.3176	  0.0050
  0.3660	  7.3192	  0.0050
  0.3700	  7.3284	  0.0050
  0.3740	  7.3421	  0.0050
  0.3780	  7.3513	  0.0050
  0.3820	  7.3542	  0.0050
  0.3860	  7.3681	  0.0050
  0.3900	  7.3838	  0.0051
  0.3940	  7.3954	  0.0051
  0.3980	  7.4051	  0.0051
  0.4020	  7.4147	  0.0052
  0.4060	  7.4299	  0.0052
  0.4100	  7.4553	  0.0053
  0.4140	  7.4702	  0.0053
  0.4180	  7.4887	  0.0054
  0.4220	  7.5137	  0.0055
  0.4260	  7.5309	  0.0056
  0.4300	  7.5333	  0.0056
  0.4340	  7.5675	  0.0056
  0.4380	  7.5914	  0.0057
  0.4420	  7.6114	  0.0058
  0.4460	  7.6274	  0.0059
  0.4500	  7.6319	  0.0060
  0.4540	  7.6616	  0.0060
  0.4580	  7.6769	  0.0062
  0.4620	  7.6885	  0.0062
  0.4660	  7.7165	  0.0063
  0.4700	  7.7293	  0.0064
  0.4740	  7.7433	  0.0065
  0.4780	  7.7551	  0.0066
  0.4820	  7.7684	  0.0067
  0.4860	  7.7553	  0.0068
  0.4900	  7.7783	  0.0069
  0.4940	  7.7867	  0.0071
  0.4980	  7.7482	  0.0072
  0.5020	  7.7336	  0.0073
  0.5060	  7.6984	  0.0074
  0.5100	  7.6382	  0.0075
  0.5140	  7.5770	  0.0075
  0.5180	  7.4954	  0.0074
  0.5220	  7.3866	  0.0072
  0.5260	  7.2884	  0.0070
  0.5300	  7.1680	  0.0067
  0.5340	  7.0355	  0.0063
  0.5380	  6.8991	  0.0060
  0.5420	  6.7721	  0.0056
  0.5460	  6.6536	  0.0053
  0.5500	  6.5292	  0.0050
  0.5540	  6.4173	  0.0048
  0.5580	  6.3020	  0.0045
  0.5620	  6.2024	  0.0043
  0.5660	  6.1081	  0.0041
  0.5700	  6.0251	  0.0040
  0.5740	  5.9475	  0.0038
  0.5780	  5.8775	  0.0037
  0.5820	  5.8183	  0.0036
  0.5860	  5.7656	  0.0035
  0.5900	  5.7197	  0.0034
  0.5940	  5.6729	  0.0034
  0.5980	  5.6431	  0.0034
  0.6020	  5.6224	  0.0033
  0.6060	  5.6020	  0.0033
  0.6100	  5.5837	  0.0033
  0.6140	  5.5704	  0.0033
  0.6180	  5.5651	  0.0033
  0.6220	  5.5643	  0.0033
  0.6260	  5.5609	  0.0033
  0.6300	  5.5615	  0.0034
  0.6340	  5.5692	  0.0034
  0.6380	  5.5803	  0.0034
  0.6420	  5.5873	  0.0035
  0.6460	  5.5920	  0.0035
  0.6500	  5.6074	  0.0036
  0.6540	  5.6173	  0.0036
  0.6580	  5.6326	  0.0037
  0.6620	  5.6353	  0.0037
  0.6660	  5.6552	  0.0038
  0.6700	  5.6618	  0.0038
  0.6740	  5.6799	  0.0039
  0.6780	  5.6815	  0.0040
  0.6820	  5.7026	  0.0040
  0.6860	  5.7176	  0.0041
  0.6900	  5.7455	  0.0042
  0.6940	  5.7643	  0.0042
  0.6980	  5.7879	  0.0043
  0.7020	  5.8092	  0.0044
  0.7060	  5.8385	  0.0045
  0.7100	  5.8650	  0.0046
  0.7140	  5.8976	  0.0047
  0.7180	  5.9358	  0.0048
  0.7220	  5.9616	  0.0049
  0.7260	  5.9957	  0.0051
  0.7300	  6.0454	  0.0052
  0.7340	  6.0764	  0.0054
  0.7380	  6.1174	  0.0056
  0.7420	  6.1600	  0.0057
  0.7460	  6.2018	  0.0059
  0.7500	  6.2519	  0.0061
  0.7540	  6.2909	  0.0063
  0.7580	  6.3321	  0.0065
  0.7620	  6.3782	  0.0068
  0.7660	  6.4235	  0.0070
  0.7700	  6.4602	  0.0072
  0.7740	  6.4968	  0.0074
  0.7780	  6.5389	  0.0077
  0.7820	  6.5820	  0.0079
  0.7860	  6.6223	  0.0082
  0.7900	  6.6853	  0.0084
  0.7940	  6.6916	  0.0087
  0.7980	  0.0000	  0.0000
